I,II,III,aVR,aVL,aVF,V1,V2,V3,V4,V5,V6
-243,-192,51,218,-147,-70,191,152,92,88,144,80
-242,-192,50,217,-146,-71,190,151,90,85,142,78
-241,-192,49,217,-145,-71,190,150,89,83,140,77
-241,-192,49,217,-145,-71,190,150,88,81,138,76
-242,-191,51,217,-146,-70,190,149,87,81,138,75
-244,-192,52,218,-148,-70,192,150,87,81,138,76
-247,-193,54,220,-150,-69,193,150,87,82,139,76
-248,-194,54,221,-151,-70,194,151,87,82,139,77
-249,-194,55,222,-152,-69,194,151,87,81,138,77
-249,-195,54,222,-151,-70,195,152,88,80,138,77
-247,-196,51,222,-149,-72,194,152,87,78,136,75
-245,-196,49,221,-147,-73,194,152,87,77,136,74
-243,-197,46,220,-144,-75,193,151,86,75,133,72
-243,-197,46,220,-144,-75,193,150,85,74,132,72
-244,-196,48,220,-146,-74,193,150,85,75,132,72
-246,-195,51,221,-148,-72,195,151,86,77,135,73
-248,-195,53,222,-150,-71,195,151,86,77,136,73
-249,-195,54,222,-151,-70,195,152,86,77,136,74
-249,-195,54,222,-151,-70,195,151,85,76,135,74
-249,-196,53,223,-151,-71,195,152,85,75,134,73
-248,-197,51,223,-149,-73,195,153,86,74,133,72
-246,-196,50,221,-148,-73,194,152,84,72,132,70
-245,-196,49,221,-147,-73,194,152,84,73,131,70
-244,-196,48,220,-146,-74,193,151,83,72,130,69
-245,-195,50,220,-147,-72,193,151,83,73,131,69
-246,-195,51,221,-148,-72,194,152,84,75,133,71
-247,-194,53,221,-150,-70,195,152,85,76,134,72
-248,-194,54,221,-151,-70,195,152,86,76,135,73
-248,-194,54,221,-151,-70,196,152,86,76,135,73
-248,-194,54,221,-151,-70,196,152,86,76,134,73
-247,-194,53,221,-150,-70,195,153,87,76,133,72
-246,-193,53,220,-149,-70,194,152,85,75,131,71
-244,-193,51,219,-147,-71,192,151,84,74,130,69
-243,-193,50,218,-146,-71,192,151,85,74,130,70
-244,-193,51,219,-147,-71,192,151,85,74,131,70
-245,-193,52,219,-148,-70,193,152,85,76,133,72
-247,-193,54,220,-150,-69,193,152,86,76,134,73
-247,-193,54,220,-150,-69,193,152,86,76,134,73
-248,-194,54,221,-151,-70,194,153,87,78,136,74
-248,-194,54,221,-151,-70,194,153,87,78,135,74
-247,-194,53,221,-150,-70,194,153,86,78,135,74
-245,-193,52,219,-148,-70,193,153,86,77,133,73
-243,-192,51,218,-147,-70,192,153,85,76,132,71
-242,-192,50,217,-146,-71,191,152,84,76,132,70
-242,-192,50,217,-146,-71,191,151,84,76,132,70
-243,-193,50,218,-146,-71,192,151,85,78,134,72
-243,-193,50,218,-146,-71,192,150,85,78,134,73
-245,-193,52,219,-148,-70,193,151,85,79,136,74
-247,-192,55,220,-151,-68,193,150,85,78,136,74
-246,-191,55,219,-150,-68,193,150,84,77,135,74
-245,-191,54,218,-149,-68,193,150,84,77,135,74
-243,-191,52,217,-147,-69,192,150,83,77,134,73
-242,-190,52,216,-147,-69,191,150,84,77,134,72
-241,-189,52,215,-146,-68,190,149,83,77,134,72
-241,-189,52,215,-146,-68,190,149,83,78,135,72
-243,-189,54,216,-148,-67,191,150,83,79,136,74
-245,-190,55,218,-150,-67,191,150,84,80,137,74
-247,-190,57,219,-152,-66,191,149,83,80,138,74
-248,-190,58,219,-153,-66,192,150,85,81,139,75
-247,-190,57,219,-152,-66,191,149,84,80,137,74
-246,-190,56,218,-151,-67,191,149,84,79,136,74
-245,-190,55,218,-150,-67,191,150,83,79,136,73
-243,-190,53,217,-148,-68,190,149,82,79,135,72
-241,-190,51,216,-146,-69,189,148,81,78,135,71
-240,-190,50,215,-145,-70,189,148,82,79,136,72
-242,-189,53,216,-147,-68,190,148,82,80,137,73
-244,-189,55,217,-149,-67,190,148,83,81,138,75
-245,-190,55,218,-150,-67,190,148,83,82,139,76
-246,-190,56,218,-151,-67,190,147,82,82,139,75
-247,-190,57,219,-152,-66,190,147,82,81,138,75
-246,-190,56,218,-151,-67,191,147,82,80,137,74
-244,-190,54,217,-149,-68,190,147,81,79,136,73
-242,-190,52,216,-147,-69,189,147,82,78,136,72
-241,-190,51,216,-146,-69,188,146,80,77,135,71
-241,-189,52,215,-146,-68,188,146,79,77,135,71
-243,-189,54,216,-148,-67,189,147,80,79,137,72
-245,-189,56,217,-150,-66,189,146,79,79,137,72
-246,-190,56,218,-151,-67,190,146,80,79,138,74
-247,-190,57,219,-152,-66,190,145,80,78,138,74
-246,-190,56,218,-151,-67,191,146,80,78,137,73
-245,-190,55,218,-150,-67,191,146,80,78,136,72
-244,-189,55,217,-149,-67,190,145,79,76,134,71
-242,-189,53,216,-147,-68,189,144,78,75,133,70
-240,-189,51,215,-145,-69,188,144,78,75,133,69
-241,-189,52,215,-146,-68,188,144,77,74,133,69
-243,-190,53,217,-148,-68,188,145,78,75,134,70
-245,-190,55,218,-150,-67,189,145,78,76,136,72
-247,-190,57,219,-152,-66,190,145,78,75,136,72
-248,-190,58,219,-153,-66,191,146,78,76,137,72
-247,-191,56,219,-151,-67,191,146,78,75,136,72
-245,-191,54,218,-149,-68,190,145,77,74,134,71
-244,-191,53,218,-148,-69,190,145,77,73,133,70
-242,-191,51,217,-146,-70,189,144,76,72,131,68
-242,-191,51,217,-146,-70,189,144,75,72,131,67
-242,-191,51,217,-146,-70,189,143,74,72,131,68
-242,-190,52,216,-147,-69,189,143,74,72,132,68
-244,-191,53,218,-148,-69,190,143,75,73,133,70
-246,-192,54,219,-150,-69,191,143,75,73,134,71
-248,-192,56,220,-152,-68,190,143,74,72,134,70
-248,-192,56,220,-152,-68,190,142,74,71,132,69
-247,-193,54,220,-150,-69,190,143,73,71,131,68
-245,-193,52,219,-148,-70,190,144,74,71,131,68
-243,-192,51,218,-147,-70,189,144,73,70,130,67
-242,-192,50,217,-146,-71,188,142,72,69,129,66
-242,-192,50,217,-146,-71,188,141,71,69,128,66
-244,-192,52,218,-148,-70,189,142,72,70,130,68
-245,-193,52,219,-148,-70,190,143,72,71,131,69
-247,-193,54,220,-150,-69,191,143,72,71,131,69
-247,-193,54,220,-150,-69,190,143,72,70,131,68
-248,-193,55,221,-151,-69,191,144,72,70,130,69
-247,-193,54,220,-150,-69,189,142,71,69,128,67
-246,-193,53,220,-149,-70,189,143,70,68,127,66
-244,-192,52,218,-148,-70,188,143,70,67,126,64
-243,-192,51,218,-147,-70,188,142,70,66,126,64
-242,-192,50,217,-146,-71,187,141,69,65,126,64
-242,-192,50,217,-146,-71,186,141,69,65,127,65
-245,-193,52,219,-148,-70,188,143,70,67,129,67
-248,-193,55,221,-151,-69,189,143,71,68,129,67
-249,-193,56,221,-152,-68,190,142,70,67,128,67
-248,-193,55,221,-151,-69,189,142,70,66,128,66
-247,-194,53,221,-150,-70,189,141,69,66,127,65
-246,-195,51,221,-148,-72,189,142,69,65,126,64
-245,-195,50,220,-147,-72,189,141,69,64,125,63
-244,-194,50,219,-147,-72,189,142,69,64,126,63
-244,-193,51,219,-147,-71,188,141,69,64,126,63
-245,-193,52,219,-148,-70,189,141,69,65,127,65
-246,-193,53,220,-149,-70,188,140,68,64,127,65
-247,-193,54,220,-150,-69,188,140,67,63,127,65
-248,-193,55,221,-151,-69,189,140,68,63,127,66
-248,-194,54,221,-151,-70,188,140,67,63,126,65
-247,-194,53,221,-150,-70,188,140,67,62,125,64
-245,-194,51,220,-148,-71,188,140,66,61,123,64
-243,-193,50,218,-146,-71,187,140,65,61,123,63
-242,-193,49,218,-145,-72,187,140,66,61,123,63
-242,-193,49,218,-145,-72,187,139,66,62,124,62
-242,-193,49,218,-145,-72,187,139,66,62,124,63
-245,-192,53,219,-149,-69,187,139,66,62,125,63
-247,-193,54,220,-150,-69,188,139,66,62,125,64
-249,-194,55,222,-152,-69,188,139,65,62,124,64
-249,-194,55,222,-152,-69,187,139,64,62,124,64
-248,-194,54,221,-151,-70,187,139,65,61,124,63
-246,-194,52,220,-149,-71,187,139,64,60,122,62
-244,-194,50,219,-147,-72,187,139,64,60,122,61
-243,-194,49,219,-146,-72,186,138,63,59,121,60
-244,-194,50,219,-147,-72,186,139,63,61,122,62
-246,-194,52,220,-149,-71,186,138,63,61,122,62
-247,-193,54,220,-150,-69,186,138,63,61,123,63
-248,-193,55,221,-151,-69,187,139,65,62,124,65
-248,-192,56,220,-152,-68,186,138,64,61,124,65
-248,-193,55,221,-151,-69,187,138,65,61,124,65
-247,-193,54,220,-150,-69,186,137,63,59,122,63
-246,-193,53,220,-149,-70,186,137,63,59,121,62
-245,-193,52,219,-148,-70,186,138,63,59,121,62
-244,-193,51,219,-147,-71,185,137,62,58,120,61
-244,-193,51,219,-147,-71,185,137,62,58,121,61
-244,-192,52,218,-148,-70,185,137,62,59,121,61
-247,-193,54,220,-150,-69,186,137,63,59,122,63
-249,-195,54,222,-151,-70,187,138,64,60,123,65
-250,-194,56,222,-153,-69,187,138,64,59,123,64
-250,-193,57,222,-153,-68,185,137,63,58,122,63
-248,-194,54,221,-151,-70,185,137,63,57,121,63
-247,-195,52,221,-149,-71,186,138,63,56,121,62
-245,-195,50,220,-147,-72,185,137,62,55,120,61
-244,-195,49,220,-146,-73,186,138,62,56,120,61
-245,-194,51,220,-148,-71,186,138,62,57,121,62
-246,-193,53,220,-149,-70,185,138,63,58,121,62
-247,-193,54,220,-150,-69,185,137,63,58,122,63
-248,-194,54,221,-151,-70,185,137,62,58,122,63
-249,-195,54,222,-151,-70,185,137,62,58,123,64
-249,-195,54,222,-151,-70,186,138,63,59,123,64
-248,-194,54,221,-151,-70,185,137,63,58,122,63
-247,-194,53,221,-150,-70,186,138,63,58,122,63
-245,-194,51,220,-148,-71,185,137,62,56,120,61
-244,-194,50,219,-147,-72,184,137,62,56,120,61
-244,-194,50,219,-147,-72,184,137,61,56,119,60
-245,-194,51,220,-148,-71,183,136,61,56,120,61
-247,-194,53,221,-150,-70,184,137,62,58,121,64
-249,-194,55,222,-152,-69,184,136,62,58,121,64
-250,-194,56,222,-153,-69,185,137,62,58,122,64
-250,-195,55,223,-152,-70,185,137,62,57,121,63
-249,-195,54,222,-151,-70,184,137,62,57,121,61
-247,-195,52,221,-149,-71,183,136,61,56,120,60
-244,-195,49,220,-146,-73,183,136,61,56,119,59
-242,-195,47,219,-144,-74,182,136,61,56,119,59
-242,-195,47,219,-144,-74,182,136,61,57,119,59
-244,-195,49,220,-146,-73,183,136,62,59,120,61
-246,-194,52,220,-149,-71,183,135,61,59,120,61
-249,-194,55,222,-152,-69,183,136,61,59,121,63
-250,-194,56,222,-153,-69,184,136,61,58,122,64
-250,-195,55,223,-152,-70,184,137,61,57,122,63
-249,-195,54,222,-151,-70,184,137,61,56,121,63
-247,-196,51,222,-149,-72,184,137,61,55,120,61
-246,-195,51,221,-148,-72,184,138,61,55,119,61
-245,-195,50,220,-147,-72,183,137,60,54,118,61
-244,-195,49,220,-146,-73,182,136,60,54,118,60
-246,-195,51,221,-148,-72,182,136,60,55,120,60
-247,-195,52,221,-149,-71,182,136,59,55,120,60
-248,-195,53,222,-150,-71,183,136,59,56,120,61
-249,-194,55,222,-152,-69,183,137,60,56,120,62
-250,-195,55,223,-152,-70,184,137,61,57,120,62
-249,-196,53,223,-151,-71,184,136,61,56,120,62
-247,-196,51,222,-149,-72,183,135,60,55,119,60
-247,-196,51,222,-149,-72,183,136,60,55,119,60
-246,-196,50,221,-148,-73,183,136,60,55,119,59
-245,-196,49,221,-147,-73,183,136,60,55,119,59
-246,-195,51,221,-148,-72,183,136,60,55,119,59
-248,-195,53,222,-150,-71,183,136,60,55,120,60
-248,-195,53,222,-150,-71,184,135,61,55,120,61
-249,-195,54,222,-151,-70,185,136,61,56,122,62
-250,-195,55,223,-152,-70,184,136,61,56,121,61
-249,-195,54,222,-151,-70,184,137,61,55,120,61
-248,-195,53,222,-150,-71,183,136,61,54,119,59
-246,-194,52,220,-149,-71,182,136,60,54,118,59
-244,-193,51,219,-147,-71,182,137,60,54,118,58
-243,-192,51,218,-147,-70,183,138,60,55,119,59
-245,-192,53,219,-149,-69,183,138,60,56,120,59
-247,-192,55,220,-151,-68,184,138,61,57,121,61
-248,-193,55,221,-151,-69,184,139,62,58,122,62
-249,-193,56,221,-152,-68,184,138,62,58,122,63
-248,-191,57,220,-152,-67,183,138,62,58,123,63
-247,-188,59,218,-153,-64,183,138,63,58,123,64
-245,-185,60,215,-152,-62,183,139,64,59,123,63
-242,-183,59,213,-150,-62,182,139,65,59,123,63
-240,-182,58,211,-149,-62,181,139,66,59,123,64
-239,-181,58,210,-148,-61,182,140,66,59,124,64
-241,-180,61,211,-151,-59,182,139,66,59,125,64
-244,-179,65,212,-154,-57,183,140,67,61,126,66
-245,-178,67,212,-156,-55,183,140,68,62,127,67
-247,-177,70,212,-158,-53,183,140,68,63,128,67
-247,-177,70,212,-158,-53,183,140,69,63,128,67
-246,-177,69,212,-157,-54,183,140,70,63,128,67
-243,-176,67,210,-155,-54,181,139,69,61,126,66
-241,-175,66,208,-153,-54,179,138,68,61,126,65
-239,-174,65,207,-152,-54,179,138,69,61,126,65
-239,-174,65,207,-152,-54,178,138,69,61,126,65
-240,-172,68,206,-154,-52,177,138,70,63,128,67
-240,-170,70,205,-155,-50,175,137,71,64,130,68
-240,-168,72,204,-156,-48,175,137,73,67,133,71
-239,-168,71,204,-155,-48,173,136,73,67,133,72
-238,-169,69,204,-153,-50,173,136,73,67,133,73
-237,-168,69,203,-153,-49,173,136,74,67,134,73
-235,-167,68,201,-151,-49,171,135,73,66,133,72
-233,-165,68,199,-150,-48,168,132,69,65,132,72
-232,-164,68,198,-150,-48,166,131,69,66,132,73
-232,-163,69,198,-150,-47,164,130,69,66,132,74
-232,-164,68,198,-150,-48,165,132,70,68,134,76
-234,-166,68,200,-151,-49,165,132,71,69,135,77
-235,-167,68,201,-151,-49,165,131,71,69,136,77
-236,-168,68,202,-152,-50,165,130,69,68,136,76
-236,-170,66,203,-151,-52,166,130,68,66,135,76
-235,-173,62,204,-148,-55,168,130,67,65,133,74
-235,-176,59,206,-147,-58,169,130,66,63,132,72
-234,-178,56,206,-145,-61,170,130,64,61,128,69
-234,-180,54,207,-144,-63,171,130,63,60,126,67
-235,-181,54,208,-144,-63,171,130,61,58,125,65
-237,-181,56,209,-146,-62,173,130,60,57,126,65
-239,-182,57,211,-148,-62,174,131,60,57,126,66
-241,-184,57,213,-149,-63,175,132,60,57,125,66
-242,-187,55,215,-148,-66,176,133,61,58,126,66
-242,-189,53,216,-147,-68,176,132,60,56,124,64
-241,-191,50,216,-145,-70,176,132,58,53,121,63
-241,-193,48,217,-144,-72,176,131,56,50,118,60
-240,-194,46,217,-143,-74,175,129,54,47,115,56
-241,-196,45,219,-143,-75,176,129,52,45,112,54
-243,-197,46,220,-144,-75,177,129,50,43,110,52
-245,-198,47,222,-146,-75,178,130,50,43,110,52
-247,-198,49,223,-148,-74,179,130,50,43,111,53
-249,-200,49,225,-149,-75,180,130,51,43,112,54
-251,-201,50,226,-150,-75,180,129,51,43,112,54
-251,-202,49,227,-150,-76,180,130,52,44,112,54
-250,-202,48,226,-149,-77,180,129,51,43,110,52
-248,-202,46,225,-147,-78,180,130,52,43,110,52
-246,-201,45,224,-145,-78,180,130,51,42,109,51
-245,-201,44,223,-144,-78,179,129,50,41,108,50
-245,-202,43,224,-144,-79,180,131,51,42,109,51
-246,-202,44,224,-145,-79,180,131,51,42,109,51
-248,-202,46,225,-147,-78,181,132,51,42,110,52
-250,-202,48,226,-149,-77,181,131,51,42,110,52
-251,-202,49,227,-150,-76,181,132,52,42,111,53
-251,-203,48,227,-149,-77,181,131,51,42,110,52
-250,-204,46,227,-148,-79,181,130,50,42,109,51
-248,-204,44,226,-146,-80,180,130,49,41,108,50
-247,-203,44,225,-145,-79,180,131,50,41,107,50
-245,-202,43,224,-144,-79,180,131,50,40,107,49
-245,-201,44,223,-144,-78,180,131,49,40,106,49
-246,-201,45,224,-145,-78,181,132,50,41,108,50
-248,-202,46,225,-147,-78,181,131,51,42,109,51
-250,-203,47,227,-148,-78,181,131,51,41,109,51
-252,-204,48,228,-150,-78,181,130,50,41,109,51
-253,-205,48,229,-150,-78,181,130,50,40,108,51
-252,-205,47,229,-149,-79,181,130,50,40,108,51
-250,-204,46,227,-148,-79,180,129,49,40,107,49
-248,-203,45,226,-146,-79,180,130,48,39,106,48
-245,-203,42,224,-143,-80,180,130,48,38,105,48
-245,-203,42,224,-143,-80,180,131,48,38,105,49
-246,-202,44,224,-145,-79,180,131,48,38,106,49
-249,-203,46,226,-147,-78,180,131,48,39,107,49
-251,-203,48,227,-149,-77,180,131,49,40,107,50
-252,-204,48,228,-150,-78,181,131,49,41,108,51
-252,-204,48,228,-150,-78,181,131,48,40,108,51
-250,-204,46,227,-148,-79,181,130,48,40,107,50
"
		-249","
		-203","
		46","
		226","
		-147","
		-78","
		180","
		129","
		47","
		39","
		106","
		49"
-247,-203,44,225,-145,-79,180,130,48,40,106,49
-246,-203,43,225,-144,-80,179,129,47,39,105,48
-246,-203,43,225,-144,-80,179,130,47,39,105,48
-248,-202,46,225,-147,-78,180,130,49,40,107,50
-250,-202,48,226,-149,-77,179,128,49,40,107,50
-251,-202,49,227,-150,-76,180,128,49,41,107,50
-252,-203,49,228,-150,-77,179,127,48,41,107,50
-252,-203,49,228,-150,-77,179,127,47,41,107,50
-251,-204,47,228,-149,-78,179,127,48,41,106,50
-249,-203,46,226,-147,-78,178,127,47,40,105,49
-247,-203,44,225,-145,-79,179,129,48,41,106,50
-245,-202,43,224,-144,-79,181,130,49,41,105,49
-244,-204,40,224,-142,-82,183,134,52,39,103,45
-247,-209,38,228,-142,-85,189,142,58,41,100,41
-250,-214,36,232,-143,-89,194,151,65,42,97,37
-254,-218,36,236,-145,-91,201,159,74,47,96,35
-256,-219,37,238,-146,-91,205,164,81,53,95,32
-258,-218,40,238,-149,-89,207,167,87,59,97,32
-257,-214,43,236,-150,-85,208,168,92,65,99,33
-254,-209,45,232,-149,-82,208,168,96,69,103,34
-251,-204,47,228,-149,-78,206,170,100,76,109,38
-247,-201,46,224,-146,-77,206,173,106,85,118,44
-243,-197,46,220,-144,-75,205,176,112,97,130,50
-239,-190,49,215,-144,-70,205,179,126,119,149,62
-234,-179,55,207,-144,-62,200,180,144,151,177,79
-227,-164,63,196,-145,-50,193,181,166,197,215,102
-215,-148,67,182,-141,-40,182,178,187,250,260,130
-200,-128,72,164,-136,-28,166,168,200,299,307,161
-188,-105,83,147,-135,-11,149,152,196,335,351,193
-182,-82,100,132,-141,9,133,125,167,352,387,221
-180,-60,120,120,-150,30,115,90,115,354,416,245
-178,-35,143,107,-160,54,93,52,62,356,445,270
-178,-9,169,94,-173,80,72,19,19,363,476,296
-183,0,183,92,-183,92,66,4,-7,369,494,311
-197,-8,189,103,-193,91,75,7,-23,356,477,302
-217,-24,193,121,-205,85,93,19,-36,313,425,275
-237,-40,197,139,-217,79,106,24,-62,235,351,240
-253,-57,196,155,-224,70,112,18,-103,132,267,201
-265,-75,190,170,-227,58,116,12,-148,29,185,161
-274,-96,178,185,-226,41,123,11,-182,-57,117,124
-279,-122,157,201,-218,18,135,19,-204,-129,63,91
-281,-152,129,217,-205,-11,151,34,-212,-183,24,64
-283,-180,103,232,-193,-38,169,55,-198,-198,3,42
-285,-203,82,244,-183,-60,187,78,-168,-172,1,26
-288,-217,71,253,-179,-73,203,96,-142,-141,5,16
-295,-228,67,262,-181,-80,220,106,-131,-129,4,6
-301,-238,63,270,-182,-87,233,109,-127,-127,0,-3
-302,-246,56,274,-179,-95,232,108,-126,-123,-3,-9
-299,-253,46,276,-172,-103,224,108,-122,-117,-2,-11
-294,-255,39,275,-166,-108,218,111,-113,-111,-1,-14
-289,-252,37,271,-163,-107,217,119,-99,-101,2,-15
-283,-246,37,265,-160,-104,216,129,-81,-87,10,-11
-277,-240,37,259,-157,-101,217,140,-60,-70,21,-5
-270,-235,35,253,-152,-100,220,153,-35,-49,35,3
-264,-230,34,247,-149,-98,219,163,-12,-28,50,12
-261,-225,36,243,-148,-94,217,167,6,-10,63,22
-259,-220,39,240,-149,-90,213,164,16,1,72,28
-257,-217,40,237,-148,-88,209,158,23,10,79,32
-254,-213,41,234,-147,-86,199,147,26,15,83,34
-251,-208,43,230,-147,-82,193,139,30,20,86,36
-248,-205,43,227,-145,-81,191,138,35,23,88,37
-246,-203,43,225,-144,-80,189,138,39,25,88,37
-246,-200,46,223,-146,-77,188,138,44,29,90,38
-247,-198,49,223,-148,-74,187,138,49,34,93,41
-248,-197,51,223,-149,-73,186,139,54,38,96,42
-249,-196,53,223,-151,-71,185,139,56,41,99,43
-249,-196,53,223,-151,-71,185,138,57,44,102,46
-248,-197,51,223,-149,-73,186,139,58,45,103,46
-247,-197,50,222,-148,-73,186,140,60,46,103,46
-246,-197,49,222,-147,-74,185,141,61,45,102,46
-243,-196,47,220,-145,-74,185,141,63,45,100,45
-242,-195,47,219,-144,-74,183,141,64,45,99,44
-243,-195,48,219,-145,-73,184,141,66,46,101,45
-243,-194,49,219,-146,-72,183,139,65,46,101,44
-244,-194,50,219,-147,-72,184,139,66,48,103,45
-246,-194,52,220,-149,-71,183,138,66,49,104,46
-247,-195,52,221,-149,-71,184,138,67,51,106,48
-246,-194,52,220,-149,-71,183,138,66,51,106,48
-245,-194,51,220,-148,-71,183,140,68,51,106,48
-243,-193,50,218,-146,-71,183,140,68,50,106,48
-242,-193,49,218,-145,-72,184,141,70,49,105,48
-241,-193,48,217,-144,-72,182,141,71,48,103,46
-241,-193,48,217,-144,-72,182,140,71,49,103,46
-242,-194,48,218,-145,-73,183,140,72,50,104,47
-243,-193,50,218,-146,-71,182,139,72,51,105,47
-245,-193,52,219,-148,-70,183,139,73,53,107,49
-246,-193,53,220,-149,-70,182,139,72,54,109,49
-246,-193,53,220,-149,-70,182,139,72,54,109,49
-245,-192,53,219,-149,-69,181,140,72,52,108,49
-243,-192,51,218,-147,-70,183,141,73,52,108,49
-241,-191,50,216,-145,-70,183,142,74,51,106,48
-240,-190,50,215,-145,-70,182,141,74,50,104,47
-239,-190,49,215,-144,-70,182,141,75,50,104,47
-241,-191,50,216,-145,-70,182,141,76,52,105,48
-243,-191,52,217,-147,-69,182,140,76,53,105,48
-245,-191,54,218,-149,-68,182,140,76,55,107,49
-246,-192,54,219,-150,-69,182,140,76,56,109,50
-245,-192,53,219,-149,-69,182,140,75,55,108,50
-244,-191,53,218,-148,-69,183,141,77,55,108,50
-243,-191,52,217,-147,-69,182,142,77,53,108,49
-242,-191,51,217,-146,-70,183,143,78,53,106,49
-241,-191,50,216,-145,-70,183,144,79,53,105,49
-239,-190,49,215,-144,-70,183,143,79,53,105,47
-238,-190,48,214,-143,-71,181,142,78,53,104,46
-241,-190,51,216,-146,-69,181,141,79,55,106,47
-243,-191,52,217,-147,-69,181,141,79,57,107,48
-245,-192,53,219,-149,-69,181,141,79,58,109,49
-246,-191,55,219,-150,-68,181,141,79,57,109,50
-244,-190,54,217,-149,-68,181,142,80,57,108,49
-242,-189,53,216,-147,-68,182,143,81,57,107,49
-239,-189,50,214,-144,-69,182,144,82,56,106,48
-239,-189,50,214,-144,-69,182,144,84,56,106,48
-239,-189,50,214,-144,-69,182,144,84,56,105,47
-239,-189,50,214,-144,-69,182,144,84,57,106,47
-240,-189,51,215,-145,-69,182,144,86,59,109,49
-242,-189,53,216,-147,-68,181,143,86,59,110,49
-244,-189,55,217,-149,-67,181,144,86,60,111,50
-244,-189,55,217,-149,-67,181,145,87,60,111,50
-243,-189,54,216,-148,-67,182,146,88,61,112,51
-241,-188,53,215,-147,-67,182,146,89,60,111,50
-239,-188,51,214,-145,-68,182,147,90,59,109,50
-237,-187,50,212,-143,-68,182,147,92,59,108,49
-237,-187,50,212,-143,-68,182,147,92,59,107,49
-238,-187,51,213,-144,-68,180,147,92,60,108,49
-240,-188,52,214,-146,-68,180,147,94,63,110,50
-241,-187,54,214,-147,-66,180,146,95,64,112,51
-242,-187,55,215,-148,-66,181,148,97,66,114,53
-242,-187,55,215,-148,-66,181,149,97,67,115,54
-240,-187,53,214,-146,-67,180,149,98,67,114,54
-239,-186,53,213,-146,-66,180,149,99,66,112,53
-237,-186,51,212,-144,-67,181,151,101,67,111,53
-236,-186,50,211,-143,-68,181,152,101,67,110,51
-235,-186,49,211,-142,-68,181,153,103,69,111,52
-235,-185,50,210,-142,-67,180,153,105,71,113,53
-237,-185,52,211,-144,-66,179,152,106,73,114,53
-239,-185,54,212,-146,-65,180,152,107,75,116,54
-238,-185,53,212,-145,-66,180,152,108,77,117,55
-237,-185,52,211,-144,-66,178,152,108,77,117,55
-236,-185,51,211,-143,-67,178,154,110,78,118,56
-234,-184,50,209,-142,-67,179,156,111,78,117,56
-233,-183,50,208,-141,-66,179,157,113,79,116,55
-231,-182,49,207,-140,-66,179,158,115,79,115,54
-230,-182,48,206,-139,-67,179,158,117,82,116,55
-231,-182,49,207,-140,-66,179,158,119,84,118,56
-232,-181,51,207,-141,-65,178,158,121,86,120,57
-233,-181,52,207,-142,-64,179,159,124,90,123,58
-234,-181,53,208,-143,-64,179,159,125,93,125,60
-234,-181,53,208,-143,-64,179,160,127,95,126,61
-232,-180,52,206,-142,-64,179,162,128,95,126,61
-229,-179,50,204,-139,-64,179,164,130,96,126,61
-226,-178,48,202,-137,-65,178,164,132,97,126,60
-224,-177,47,201,-135,-65,178,166,134,98,126,60
-223,-176,47,200,-135,-64,177,167,137,102,127,61
-224,-176,48,200,-136,-64,177,168,139,105,128,62
-224,-175,49,200,-136,-63,177,168,142,109,131,64
-225,-174,51,200,-138,-61,177,169,144,114,134,67
-225,-174,51,200,-138,-61,177,169,147,117,137,69
-225,-174,51,200,-138,-61,176,170,149,120,138,70
-223,-174,49,199,-136,-62,175,172,150,122,139,70
-220,-172,48,196,-134,-62,175,173,153,123,139,70
-217,-170,47,194,-132,-61,175,175,156,126,140,71
-213,-169,44,191,-128,-62,174,176,159,127,141,71
-213,-168,45,191,-129,-61,174,177,162,131,143,72
-214,-168,46,191,-130,-61,173,177,165,135,144,74
-215,-168,47,192,-131,-60,172,176,166,138,146,76
-216,-167,49,192,-132,-59,170,177,167,143,150,78
-216,-167,49,192,-132,-59,170,177,169,147,153,80
-215,-166,49,191,-132,-58,170,178,171,151,156,83
-212,-165,47,189,-129,-59,169,179,172,153,156,83
-209,-164,45,187,-127,-59,169,180,173,155,158,84
-206,-162,44,184,-125,-59,168,181,174,156,158,84
-202,-161,41,182,-121,-60,167,181,176,158,159,85
-201,-159,42,180,-121,-58,166,181,178,161,161,86
-203,-158,45,181,-124,-56,165,181,179,165,163,88
-205,-158,47,182,-126,-55,165,181,181,169,166,90
-207,-158,49,183,-128,-54,164,180,182,171,169,92
-207,-157,50,182,-128,-53,163,180,182,173,172,95
-205,-157,48,181,-126,-54,162,179,181,174,173,96
-203,-155,48,179,-125,-53,161,179,181,175,174,96
-200,-154,46,177,-123,-54,160,179,181,177,175,97
-197,-153,44,175,-120,-54,158,178,181,176,174,97
-196,-153,43,175,-119,-55,158,179,181,178,174,97
-195,-152,43,174,-119,-54,157,177,181,179,175,97
-195,-152,43,174,-119,-54,156,176,180,180,177,99
-197,-151,46,174,-121,-52,156,175,180,183,181,101
-198,-151,47,175,-122,-52,155,173,178,184,182,102
-199,-151,48,175,-123,-51,154,172,175,185,183,103
-199,-151,48,175,-123,-51,153,170,173,184,183,104
-199,-151,48,175,-123,-51,152,168,170,183,182,104
-197,-150,47,174,-122,-51,151,166,167,181,182,104
-195,-149,46,172,-120,-51,151,165,164,178,181,104
-195,-148,47,172,-121,-50,151,165,162,177,181,104
-195,-148,47,172,-121,-50,151,162,158,174,180,104
-197,-148,49,173,-123,-49,151,160,154,172,179,104
-199,-148,51,174,-125,-48,149,156,149,168,178,103
-201,-149,52,175,-126,-48,149,154,143,164,177,103
-203,-149,54,176,-128,-47,148,151,138,160,176,103
-204,-150,54,177,-129,-48,149,149,133,155,174,102
-205,-151,54,178,-129,-48,150,147,128,148,171,100
-205,-152,53,179,-129,-49,152,146,124,143,168,99
-205,-152,53,179,-129,-49,152,145,119,136,164,96
-206,-153,53,180,-129,-50,152,144,115,130,160,93
-207,-154,53,181,-130,-50,153,142,110,124,156,91
-210,-156,54,183,-132,-51,154,140,107,121,154,89
-214,-157,57,186,-135,-50,154,138,102,116,151,87
-218,-159,59,189,-138,-50,155,137,98,113,150,87
-221,-160,61,191,-141,-49,156,136,95,109,148,86
-222,-162,60,192,-141,-51,157,135,91,103,146,84
-223,-163,60,193,-141,-51,157,133,87,98,141,82
-222,-165,57,194,-139,-54,158,133,84,93,138,81
-222,-166,56,194,-139,-55,159,132,80,88,134,77
-222,-167,55,195,-138,-56,160,132,78,83,131,73
-223,-167,56,195,-139,-55,162,132,76,81,130,72
-225,-168,57,197,-141,-55,164,132,74,79,128,71
-227,-169,58,198,-142,-55,164,131,71,76,127,70
-230,-170,60,200,-145,-55,164,130,68,73,125,69
-233,-171,62,202,-147,-54,164,129,66,71,125,69
-234,-172,62,203,-148,-55,166,129,63,68,124,69
-234,-173,61,204,-147,-56,166,129,61,65,121,67
-233,-174,59,204,-146,-57,167,129,59,62,118,65
-232,-175,57,204,-144,-59,167,129,58,60,116,63
-231,-176,55,204,-143,-60,168,129,57,58,114,62
-231,-176,55,204,-143,-60,168,128,56,56,113,60
-234,-176,58,205,-146,-59,169,128,55,56,113,60
-236,-176,60,206,-148,-58,169,128,55,56,113,60
-237,-177,60,207,-148,-58,169,127,54,56,113,61
-237,-178,59,208,-148,-59,169,126,52,55,113,60
-238,-179,59,209,-148,-60,169,126,52,54,113,61
-238,-179,59,209,-148,-60,170,127,51,52,111,60
-236,-180,56,208,-146,-62,170,127,49,49,109,59
-234,-180,54,207,-144,-63,171,127,50,48,109,58
-234,-180,54,207,-144,-63,171,127,50,48,108,57
-234,-179,55,207,-144,-62,171,126,50,47,107,56
-235,-179,56,207,-145,-61,171,128,52,48,108,57
-236,-179,57,208,-146,-61,171,127,51,48,108,57
-238,-180,58,209,-148,-61,170,126,50,49,109,57
-240,-180,60,210,-150,-60,170,126,50,50,110,58
-240,-180,60,210,-150,-60,170,126,49,49,109,58
-240,-180,60,210,-150,-60,171,126,49,48,109,58
-239,-180,59,210,-149,-60,170,126,48,46,107,57
-237,-180,57,209,-147,-61,171,127,48,46,107,56
-236,-180,56,208,-146,-62,170,127,48,45,105,55
-236,-180,56,208,-146,-62,171,127,49,45,104,54
-238,-180,58,209,-148,-61,171,127,50,45,105,55
-239,-180,59,210,-149,-60,171,125,49,45,105,55
-241,-181,60,211,-150,-60,171,125,48,46,106,55
-242,-180,62,211,-152,-59,170,124,48,46,107,56
-242,-180,62,211,-152,-59,171,125,49,46,108,57
-241,-180,61,211,-151,-59,172,126,49,47,108,58
-239,-180,59,210,-149,-60,172,127,49,45,107,57
-237,-180,57,209,-147,-61,172,127,50,44,107,56
-236,-180,56,208,-146,-62,171,126,50,43,104,54
-237,-180,57,209,-147,-61,171,127,51,43,103,54
-237,-179,58,208,-147,-60,169,126,50,42,104,54
-238,-179,59,209,-148,-60,170,127,52,44,107,56
-239,-179,60,209,-149,-59,169,126,52,45,107,57
-241,-179,62,210,-151,-58,169,126,53,46,108,58
-242,-179,63,211,-152,-58,169,126,52,46,108,58
-241,-180,61,211,-151,-59,169,127,52,45,108,58
-239,-180,59,210,-149,-60,169,127,52,44,106,57
-237,-179,58,208,-147,-60,168,127,52,43,105,56
-235,-179,56,207,-145,-61,169,127,53,43,105,55
-235,-178,57,207,-146,-60,168,126,53,43,104,55
-235,-178,57,207,-146,-60,168,125,53,43,104,55
-237,-179,58,208,-147,-60,168,126,54,45,106,56
-240,-179,61,210,-150,-59,169,126,54,47,108,57
-241,-179,62,210,-151,-58,169,127,55,48,110,58
-242,-179,63,211,-152,-58,169,126,54,48,111,59
-241,-180,61,211,-151,-59,169,126,54,47,110,59
-240,-181,59,211,-149,-61,169,127,54,46,109,59
-237,-180,57,209,-147,-61,169,127,54,45,108,58
-234,-179,55,207,-144,-62,168,126,53,44,106,56
-234,-178,56,206,-145,-61,168,127,53,44,107,56
-235,-177,58,206,-146,-59,168,126,54,44,108,56
-237,-178,59,208,-148,-59,168,126,55,46,109,57
-238,-178,60,208,-149,-59,167,125,54,47,110,57
-240,-179,61,210,-150,-59,168,125,54,48,111,59
-241,-179,62,210,-151,-58,169,126,55,48,113,60
-240,-179,61,210,-150,-59,168,125,53,47,112,59
-237,-179,58,208,-147,-60,167,125,53,46,111,58
-235,-178,57,207,-146,-60,166,125,53,45,109,56
-234,-178,56,206,-145,-61,166,126,53,45,109,56
-234,-178,56,206,-145,-61,166,126,53,45,109,56
-235,-178,57,207,-146,-60,166,125,53,46,109,56
-236,-178,58,207,-147,-60,166,125,54,47,111,58
-237,-178,59,208,-148,-59,166,125,53,48,113,59
-237,-178,59,208,-148,-59,166,124,53,48,114,59
-238,-178,60,208,-149,-59,167,124,52,48,114,59
-237,-178,59,208,-148,-59,167,124,52,47,113,59
-236,-178,58,207,-147,-60,167,125,52,47,112,60
-234,-178,56,206,-145,-61,166,124,52,46,111,59
-233,-178,55,206,-144,-61,166,125,53,46,111,58
-232,-179,53,206,-142,-63,166,125,53,47,111,59
-233,-179,54,206,-143,-62,166,124,52,47,111,59
-236,-179,57,208,-146,-61,166,123,52,47,112,59
-238,-179,59,209,-148,-60,166,123,52,48,113,59
-239,-179,60,209,-149,-59,166,122,51,48,114,60
-239,-180,59,210,-149,-60,166,122,51,48,114,61
-237,-179,58,208,-147,-60,165,122,50,47,113,60
"
		-235","
		-179","
		56","
		207","
		-145","
		-61","
		166","
		123","
		50","
		47","
		113","
		60"
-234,-179,55,207,-144,-62,165,122,49,45,112,59
-233,-179,54,206,-143,-62,165,123,50,45,111,59
-232,-179,53,206,-142,-63,165,123,50,45,110,58
-232,-179,53,206,-142,-63,165,122,49,45,110,57
-234,-178,56,206,-145,-61,164,120,49,45,111,57
-237,-179,58,208,-147,-60,165,120,48,45,112,58
-238,-180,58,209,-148,-61,166,120,47,45,113,59
-238,-179,59,209,-148,-60,166,120,47,45,113,59
-237,-179,58,208,-147,-60,165,119,46,43,111,58
-236,-179,57,208,-146,-61,165,120,46,42,110,58
-234,-180,54,207,-144,-63,166,121,47,41,109,58
-233,-180,53,207,-143,-63,166,121,47,40,108,56
-233,-180,53,207,-143,-63,166,121,47,40,107,56
-234,-179,55,207,-144,-62,166,120,47,41,107,56
-235,-179,56,207,-145,-61,166,120,47,42,109,57
-236,-179,57,208,-146,-61,166,119,46,42,109,57
-238,-180,58,209,-148,-61,166,119,46,42,110,58
-239,-180,59,210,-149,-60,166,119,45,42,110,57
-237,-180,57,209,-147,-61,166,119,44,41,109,57
-235,-181,54,208,-144,-63,166,119,43,39,107,56
-234,-182,52,208,-143,-65,166,119,43,37,106,55
-234,-181,53,208,-143,-64,165,119,43,37,105,54
-234,-181,53,208,-143,-64,165,119,43,37,105,55
-235,-181,54,208,-144,-63,165,119,44,37,106,56
-237,-181,56,209,-146,-62,166,119,45,39,108,56
-239,-182,57,211,-148,-62,166,118,44,39,108,57
-239,-182,57,211,-148,-62,165,117,43,38,108,57
-239,-182,57,211,-148,-62,165,116,42,37,108,57
-237,-182,55,210,-146,-63,165,116,41,37,107,56
-236,-182,54,209,-145,-64,166,117,42,37,106,58
-235,-182,53,209,-144,-64,166,118,42,36,105,57
-235,-182,53,209,-144,-64,167,119,42,36,104,56
-235,-182,53,209,-144,-64,167,119,42,36,104,56
-235,-182,53,209,-144,-64,167,118,41,36,105,56
-237,-181,56,209,-146,-62,166,116,40,35,105,56
-238,-181,57,210,-147,-62,165,116,39,35,105,56
-239,-182,57,211,-148,-62,166,117,39,35,106,57
-239,-182,57,211,-148,-62,166,116,39,35,107,57
-239,-183,56,211,-147,-63,166,116,38,35,106,57
-237,-183,54,210,-145,-64,167,117,39,35,105,56
-235,-182,53,209,-144,-64,166,118,38,34,104,55
-234,-182,52,208,-143,-65,166,118,38,33,103,54
-233,-181,52,207,-142,-64,166,118,39,33,103,54
-235,-181,54,208,-144,-63,165,117,39,34,103,54
-237,-181,56,209,-146,-62,166,117,40,35,104,56
-239,-182,57,211,-148,-62,166,117,40,35,105,57
-240,-183,57,212,-148,-63,166,116,39,36,106,57
-240,-184,56,212,-148,-64,165,116,37,35,106,56
-239,-184,55,212,-147,-64,166,117,37,35,105,56
-237,-184,53,211,-145,-65,165,117,36,33,103,55
-236,-185,51,211,-143,-67,166,117,37,32,102,55
-235,-184,51,210,-143,-66,165,116,36,30,100,54
-234,-183,51,209,-142,-66,165,117,37,30,101,54
-234,-183,51,209,-142,-66,165,117,37,30,102,54
-236,-184,52,210,-144,-66,166,117,38,31,103,56
-238,-184,54,211,-146,-65,165,115,37,31,104,56
-240,-184,56,212,-148,-64,166,116,37,33,105,58
-240,-184,56,212,-148,-64,167,115,37,33,105,58
-240,-184,56,212,-148,-64,166,116,37,33,105,58
-238,-184,54,211,-146,-65,165,115,36,32,103,57
-236,-184,52,210,-144,-66,166,117,37,32,103,57
-234,-183,51,209,-142,-66,165,117,37,30,102,56
-234,-184,50,209,-142,-67,165,117,37,30,101,55
-235,-184,51,210,-143,-66,165,116,36,30,101,55
-236,-185,51,211,-143,-67,165,116,37,31,102,56
-238,-185,53,212,-145,-66,165,116,37,31,104,57
-240,-185,55,213,-147,-65,165,115,37,31,104,57
-240,-185,55,213,-147,-65,165,115,37,32,104,57
-239,-185,54,212,-146,-65,165,115,37,31,104,57
-237,-185,52,211,-144,-66,164,115,35,30,103,56
-235,-185,50,210,-142,-67,165,116,36,29,102,56
-233,-184,49,209,-141,-67,165,116,35,28,100,55
-233,-184,49,209,-141,-67,165,115,35,28,100,54
-235,-184,51,210,-143,-66,165,115,35,28,100,54
-236,-184,52,210,-144,-66,165,115,36,30,101,55
-238,-184,54,211,-146,-65,165,113,35,30,102,55
-239,-185,54,212,-146,-65,165,113,36,30,103,56
-239,-185,54,212,-146,-65,165,113,35,30,103,56
-238,-185,53,212,-145,-66,165,113,36,30,102,56
-237,-186,51,212,-144,-67,165,114,36,29,102,56
-235,-185,50,210,-142,-67,165,114,36,29,101,55
-234,-184,50,209,-142,-67,165,115,35,28,100,55
-233,-183,50,208,-141,-66,164,115,34,27,99,54
-235,-184,51,210,-143,-66,165,115,35,28,99,54
-237,-185,52,211,-144,-66,164,115,35,29,100,54
-239,-185,54,212,-146,-65,164,114,34,30,101,55
-240,-185,55,213,-147,-65,164,113,34,29,102,56
-240,-185,55,213,-147,-65,164,113,34,29,102,56
-239,-185,54,212,-146,-65,164,113,34,30,102,55
-237,-185,52,211,-144,-66,164,114,33,28,101,54
-235,-185,50,210,-142,-67,164,115,34,28,101,54
-234,-184,50,209,-142,-67,164,115,34,28,100,53
-234,-183,51,209,-142,-66,164,115,33,27,99,53
-235,-184,51,210,-143,-66,163,114,32,26,99,53
-237,-185,52,211,-144,-66,163,114,33,28,100,54
-239,-185,54,212,-146,-65,164,114,33,29,102,55
-240,-185,55,213,-147,-65,163,114,33,29,102,55
-240,-185,55,213,-147,-65,163,113,33,29,102,55
-239,-185,54,212,-146,-65,163,113,34,29,102,55
-238,-185,53,212,-145,-66,163,114,34,29,101,54
-236,-185,51,211,-143,-67,162,114,34,29,99,53
-234,-185,49,210,-141,-68,161,114,33,28,99,52
-234,-184,50,209,-142,-67,161,114,33,28,99,52
-235,-184,51,210,-143,-66,161,113,33,28,99,51
-237,-185,52,211,-144,-66,162,113,33,29,99,53
-239,-185,54,212,-146,-65,163,114,33,30,101,54
-240,-185,55,213,-147,-65,163,113,33,30,101,55
-240,-185,55,213,-147,-65,163,113,33,30,101,55
-238,-185,53,212,-145,-66,162,114,33,30,101,55
-236,-185,51,211,-143,-67,161,114,32,29,100,53
-234,-185,49,210,-141,-68,161,114,32,28,98,53
-233,-185,48,209,-140,-68,162,114,32,28,98,53
-232,-185,47,209,-139,-69,163,115,33,28,98,53
-234,-184,50,209,-142,-67,163,115,33,28,98,53
-236,-184,52,210,-144,-66,164,116,34,30,100,54
-237,-185,52,211,-144,-66,163,114,33,30,100,54
-239,-186,53,213,-146,-66,163,113,33,31,101,55
-240,-187,53,214,-146,-67,163,114,34,31,102,55
-240,-187,53,214,-146,-67,163,115,34,32,101,55
-237,-186,51,212,-144,-67,163,115,34,32,101,54
-234,-185,49,210,-141,-68,163,115,33,31,99,52
-234,-185,49,210,-141,-68,163,115,33,30,98,52
-234,-185,49,210,-141,-68,162,115,33,28,97,52
-234,-185,49,210,-141,-68,162,115,33,27,97,52
-236,-186,50,211,-143,-68,162,114,33,27,98,52
-238,-187,51,213,-144,-68,163,113,33,28,100,53
-238,-187,51,213,-144,-68,162,112,32,29,101,54
-239,-187,52,213,-145,-67,163,113,33,30,102,55
-239,-186,53,213,-146,-66,162,113,33,29,100,54
-237,-186,51,212,-144,-67,162,114,33,29,100,55
-234,-186,48,210,-141,-69,162,114,33,28,99,54
-233,-185,48,209,-140,-68,161,114,32,26,98,53
-233,-185,48,209,-140,-68,162,114,33,27,98,52
-233,-184,49,209,-141,-67,161,113,33,27,98,52
-235,-185,50,210,-142,-67,162,113,33,28,98,53
-237,-186,51,212,-144,-67,162,113,34,29,100,54
-238,-187,51,213,-144,-68,162,112,34,29,101,54
-239,-187,52,213,-145,-67,162,113,34,30,101,55
-240,-187,53,214,-146,-67,162,113,33,28,100,54
-238,-187,51,213,-144,-68,161,113,32,27,99,53
-236,-187,49,212,-142,-69,162,114,32,28,99,53
-233,-186,47,210,-140,-69,161,113,31,26,97,52
-232,-185,47,209,-139,-69,162,114,31,27,97,52
-233,-185,48,209,-140,-68,162,114,32,27,98,52
-235,-185,50,210,-142,-67,163,114,33,28,99,54
-237,-186,51,212,-144,-67,163,114,33,29,100,55
-237,-186,51,212,-144,-67,163,113,32,28,101,55
-238,-186,52,212,-145,-67,163,113,31,28,101,55
-237,-185,52,211,-144,-66,162,112,30,27,100,54
-236,-185,51,211,-143,-67,163,113,31,27,99,53
-233,-184,49,209,-141,-67,163,114,31,26,98,53
-231,-183,48,207,-139,-67,163,115,31,26,98,53
-231,-181,50,206,-140,-65,162,115,31,26,98,52
-232,-181,51,207,-141,-65,163,115,32,27,99,52
-233,-181,52,207,-142,-64,164,115,33,27,100,53
-234,-181,53,208,-143,-64,163,114,32,28,101,54
-235,-180,55,208,-145,-62,163,114,32,29,102,55
-236,-179,57,208,-146,-61,163,115,33,31,103,57
-234,-176,58,205,-146,-59,163,114,33,31,103,56
-232,-174,58,203,-145,-58,163,115,35,31,105,57
-231,-173,58,202,-144,-57,163,116,35,31,104,57
-229,-172,57,201,-143,-57,162,116,34,31,104,56
-228,-171,57,200,-142,-57,163,117,35,32,104,57
-229,-170,59,200,-144,-55,163,117,36,33,105,58
-230,-170,60,200,-145,-55,163,117,37,34,106,59
-232,-169,63,201,-147,-53,163,117,38,36,108,61
-233,-169,64,201,-148,-52,165,117,40,37,110,63
-233,-168,65,201,-149,-51,163,116,38,36,109,63
-232,-168,64,200,-148,-52,163,117,38,36,109,63
-230,-167,63,199,-146,-52,161,117,38,35,108,62
-228,-167,61,198,-144,-53,160,117,38,35,108,61
-227,-167,60,197,-143,-53,161,119,39,35,108,61
-226,-166,60,196,-143,-53,159,119,39,35,107,60
-226,-165,61,196,-143,-52,158,120,41,36,108,62
-225,-162,63,194,-144,-49,157,119,42,39,111,65
-225,-160,65,193,-145,-47,156,118,43,41,113,66
-226,-160,66,193,-146,-47,155,117,43,42,115,67
-226,-159,67,193,-146,-46,155,117,44,43,116,68
-226,-158,68,192,-147,-45,155,117,44,44,117,70
-224,-157,67,191,-145,-45,153,114,42,43,116,70
-221,-157,64,189,-142,-46,148,111,39,41,115,69
-217,-157,60,187,-138,-48,144,108,37,39,113,67
-216,-156,60,186,-138,-48,144,109,38,41,114,68
-218,-157,61,188,-139,-48,146,110,39,42,116,70
-220,-157,63,189,-141,-47,145,109,39,42,117,70
-221,-158,63,190,-142,-47,146,109,39,43,118,71
-222,-159,63,191,-142,-48,146,109,38,42,119,72
-223,-161,62,192,-142,-49,146,107,35,41,117,72
-224,-164,60,194,-142,-52,147,106,32,38,115,70
-224,-166,58,195,-141,-54,148,107,31,37,114,68
-222,-169,53,196,-137,-58,149,108,29,35,111,65
-221,-171,50,196,-135,-60,150,107,27,32,108,62
-222,-173,49,198,-135,-62,151,107,26,31,106,61
-224,-174,50,199,-137,-62,151,107,25,30,105,62
-226,-175,51,201,-138,-62,152,107,25,30,106,62
-227,-176,51,202,-139,-62,152,108,24,31,106,62
-229,-178,51,204,-140,-63,153,108,25,31,107,62
-229,-181,48,205,-138,-66,154,108,25,29,106,61
-230,-183,47,207,-138,-68,155,108,23,27,104,59
-230,-185,45,208,-137,-70,155,108,21,25,101,57
-230,-187,43,209,-136,-72,156,107,19,23,98,55
-230,-188,42,209,-136,-73,156,106,16,20,94,51
-232,-190,42,211,-137,-74,157,106,15,18,92,49
-234,-190,44,212,-139,-73,159,106,16,18,93,49
-235,-191,44,213,-139,-73,159,107,17,19,94,50
-237,-191,46,214,-141,-72,159,106,16,20,94,50
-240,-192,48,216,-144,-72,160,107,18,20,96,52
-240,-192,48,216,-144,-72,160,107,17,19,95,51
-239,-193,46,216,-142,-73,160,107,18,19,95,51
-237,-193,44,215,-140,-74,160,107,17,18,94,51
-235,-193,42,214,-138,-75,159,107,16,17,92,50
-232,-192,40,212,-136,-76,159,107,16,16,91,49
-231,-192,39,212,-135,-76,159,107,17,17,90,48
-232,-192,40,212,-136,-76,160,107,18,18,91,49
-234,-192,42,213,-138,-75,160,108,18,19,92,50
-236,-192,44,214,-140,-74,160,106,17,18,92,49
-237,-192,45,215,-141,-73,160,106,18,18,93,49
-239,-193,46,216,-142,-73,160,106,18,18,94,49
-239,-194,45,217,-142,-74,160,106,18,18,94,48
-237,-194,43,216,-140,-75,159,106,17,16,92,47
-235,-194,41,215,-138,-76,159,106,17,16,91,47
-233,-194,39,214,-136,-77,159,106,17,15,90,46
-233,-193,40,213,-136,-76,159,107,17,16,90,46
-233,-193,40,213,-136,-76,160,107,17,16,90,46
-235,-193,42,214,-138,-75,159,106,16,16,90,46
-237,-194,43,216,-140,-75,159,106,17,17,91,47
-239,-194,45,217,-142,-74,160,106,17,18,92,48
-240,-195,45,218,-142,-75,161,107,18,19,93,48
-240,-195,45,218,-142,-75,160,107,18,18,93,47
-239,-195,44,217,-141,-75,159,106,17,17,91,46
-236,-194,42,215,-139,-76,160,106,17,16,89,47
-234,-194,40,214,-137,-77,160,106,16,15,88,46
-233,-194,39,214,-136,-77,160,106,16,14,88,45
-235,-195,40,215,-137,-77,160,106,16,14,89,45
-236,-195,41,216,-138,-77,159,104,16,13,89,45
-238,-196,42,217,-140,-77,159,105,16,15,90,46
-239,-196,43,218,-141,-76,160,105,17,17,91,48
-240,-195,45,218,-142,-75,160,105,16,16,91,48
-240,-195,45,218,-142,-75,160,105,17,16,91,47
-239,-195,44,217,-141,-75,159,105,16,15,90,46
-237,-195,42,216,-139,-76,159,106,17,16,91,47
-235,-195,40,215,-137,-77,159,106,16,16,90,46
-235,-194,41,215,-138,-76,160,106,17,16,90,46
-235,-194,41,215,-138,-76,159,105,17,17,90,47
-236,-194,42,215,-139,-76,159,105,16,17,90,47
-238,-195,43,217,-140,-76,159,105,16,18,92,47
-240,-195,45,218,-142,-75,159,105,16,19,93,48
-240,-195,45,218,-142,-75,159,105,16,19,93,48
-239,-195,44,217,-141,-75,158,104,16,18,92,47
-238,-194,44,216,-141,-75,158,105,16,18,92,48
-237,-193,44,215,-140,-74,157,104,15,17,90,47
-236,-193,43,215,-139,-75,159,105,16,18,90,46
-235,-193,42,214,-138,-75,160,106,17,17,89,45
-236,-196,40,216,-138,-78,164,111,21,18,87,43
-237,-200,37,219,-137,-81,167,118,25,18,83,38
-239,-204,35,222,-137,-84,173,126,33,20,81,35
-241,-206,35,224,-138,-85,179,135,42,24,80,32
-243,-208,35,226,-139,-86,182,140,50,29,79,29
-244,-206,38,225,-141,-84,184,143,56,35,81,30
-244,-202,42,223,-143,-80,185,144,59,40,83,31
-242,-197,45,220,-143,-76,186,146,64,47,89,33
-239,-192,47,216,-143,-72,185,148,69,54,95,36
-235,-188,47,212,-141,-70,185,151,75,64,103,42
-232,-186,46,209,-139,-70,185,154,84,78,117,49
-229,-181,48,205,-138,-66,184,158,98,101,136,61
-224,-171,53,198,-138,-59,180,160,118,135,164,78
-215,-157,58,186,-136,-49,172,160,140,179,202,103
-200,-141,59,171,-129,-41,160,155,160,227,245,129
-184,-121,63,153,-123,-29,145,145,174,274,291,161
-172,-97,75,135,-123,-11,128,128,171,310,335,194
-165,-74,91,120,-128,9,110,101,140,325,369,221
-163,-52,111,108,-137,30,91,66,88,327,396,244
-161,-28,133,95,-147,53,71,29,37,330,425,269
-161,-5,156,83,-158,76,53,-3,-3,338,455,294
-167,3,170,82,-168,87,47,-18,-28,345,471,307
-181,-5,176,93,-178,86,58,-11,-42,332,453,298
-201,-21,180,111,-190,80,77,1,-57,287,399,271
-220,-37,183,129,-201,73,88,5,-86,207,324,236
-238,-53,185,146,-211,66,95,1,-129,108,244,199
-253,-71,182,162,-217,56,100,-5,-175,10,168,160
-263,-92,171,178,-217,40,108,-8,-213,-76,102,121
-268,-119,149,194,-208,15,119,-4,-237,-149,49,89
-272,-149,123,211,-197,-13,134,10,-244,-204,10,60
-275,-177,98,226,-186,-39,153,31,-228,-218,-11,37
-277,-198,79,238,-178,-59,171,54,-199,-192,-13,23
-281,-212,69,247,-175,-71,188,69,-176,-163,-8,14
-287,-223,64,255,-175,-79,206,76,-168,-154,-10,4
-293,-233,60,263,-176,-86,217,80,-166,-153,-16,-5
-294,-242,52,268,-173,-95,216,80,-165,-149,-19,-12
-291,-248,43,270,-167,-102,207,80,-160,-145,-19,-16
-286,-249,37,268,-161,-106,203,87,-149,-138,-18,-18
-280,-246,34,263,-157,-106,201,99,-131,-126,-13,-18
-274,-239,35,257,-154,-102,201,112,-111,-111,-4,-13
-268,-232,36,250,-152,-98,202,124,-87,-92,8,-8
-261,-227,34,244,-147,-96,203,137,-60,-68,23,1
-254,-223,31,239,-142,-96,201,146,-36,-46,38,11
-250,-219,31,235,-140,-94,196,148,-21,-30,49,19
-249,-214,35,232,-142,-89,192,144,-11,-18,58,25
-247,-209,38,228,-142,-85,186,134,-5,-11,65,30
"
		-243","
		-205","
		38","
		224","
		-140","
		-83","
		177","
		121","
		-2","
		-7","
		69","
		32"
-239,-200,39,220,-139,-80,170,114,1,-4,70,33
-238,-198,40,218,-139,-79,169,114,7,-1,72,34
-237,-196,41,217,-139,-77,169,116,12,2,72,34
-236,-194,42,215,-139,-76,168,116,18,6,75,36
-236,-192,44,214,-140,-74,167,116,24,12,79,38
-238,-191,47,215,-142,-72,167,119,29,18,84,41
-240,-191,49,216,-144,-71,165,118,29,21,86,42
-241,-191,50,216,-145,-70,165,118,30,23,89,44
-239,-191,48,215,-143,-71,164,118,30,23,88,43
-237,-190,47,214,-142,-71,164,119,31,23,87,44
-234,-189,45,212,-139,-72,164,120,32,22,87,45
-232,-188,44,210,-138,-72,164,121,33,22,85,43
-231,-187,44,209,-137,-71,164,121,35,22,84,42
-231,-187,44,209,-137,-71,164,120,37,24,85,42
-232,-186,46,209,-139,-70,163,119,38,25,86,42
-234,-187,47,211,-140,-70,163,118,39,27,88,43
-235,-188,47,212,-141,-70,162,118,39,29,90,45
-235,-188,47,212,-141,-70,162,117,39,30,91,46
-234,-187,47,211,-140,-70,162,118,38,29,92,47
-232,-185,47,209,-139,-69,162,120,39,28,92,47
-230,-185,45,208,-137,-70,162,120,39,27,90,46
-229,-185,44,207,-136,-70,163,122,41,27,89,45
-228,-185,43,207,-135,-71,163,122,42,26,88,43
-229,-185,44,207,-136,-70,164,121,43,28,88,43
-230,-186,44,208,-137,-71,162,119,42,28,88,43
-232,-187,45,210,-138,-71,161,119,43,30,90,44
-234,-187,47,211,-140,-70,161,118,44,32,92,46
-234,-186,48,210,-141,-69,161,118,44,33,94,48
-233,-185,48,209,-140,-68,161,119,43,33,94,48
-232,-185,47,209,-139,-69,162,121,44,32,94,48
-230,-184,46,207,-138,-69,162,122,44,31,92,47
-228,-183,45,206,-136,-69,162,122,45,30,91,46
-227,-183,44,205,-135,-69,162,123,46,30,90,44
-227,-183,44,205,-135,-69,162,123,47,31,90,44
-229,-183,46,206,-137,-68,161,122,48,33,91,44
-231,-184,47,208,-139,-68,161,121,49,35,93,45
-232,-184,48,208,-140,-68,160,120,48,36,94,46
-232,-185,47,209,-139,-69,160,120,49,38,96,48
-232,-185,47,209,-139,-69,161,121,49,37,96,48
-230,-184,46,207,-138,-69,161,122,49,35,95,48
-228,-183,45,206,-136,-69,162,123,49,33,93,47
-225,-183,42,204,-133,-70,162,125,50,33,91,45
-225,-183,42,204,-133,-70,162,125,52,33,91,44
-226,-183,43,205,-134,-70,161,124,53,33,90,44
-228,-183,45,206,-136,-69,161,124,54,35,92,44
-230,-183,47,207,-138,-68,161,124,54,37,93,44
-231,-183,48,207,-139,-67,161,124,55,40,96,47
-232,-183,49,208,-140,-67,161,124,54,40,97,48
-232,-183,49,208,-140,-67,161,124,55,40,97,47
-230,-182,48,206,-139,-67,161,125,56,38,95,45
-228,-181,47,205,-137,-67,161,126,56,37,93,45
-227,-181,46,204,-136,-67,163,127,58,37,93,45
-226,-181,45,204,-135,-68,162,126,59,36,91,44
-226,-181,45,204,-135,-68,162,126,60,38,92,44
-227,-182,45,205,-136,-68,162,126,61,40,94,45
-228,-182,46,205,-137,-68,161,125,61,40,95,45
-229,-183,46,206,-137,-68,161,126,62,42,97,47
-230,-183,47,207,-138,-68,161,126,61,43,98,48
-231,-182,49,207,-140,-66,161,127,62,44,99,49
-229,-181,48,205,-138,-66,161,127,62,44,98,49
-226,-180,46,203,-136,-67,161,128,62,42,96,48
-225,-180,45,203,-135,-67,162,130,65,42,96,48
-224,-179,45,202,-134,-67,161,130,66,42,94,46
-224,-179,45,202,-134,-67,161,130,67,43,94,46
-226,-179,47,203,-136,-66,161,130,68,45,96,47
-227,-179,48,203,-137,-65,161,129,69,47,97,47
-228,-179,49,204,-138,-65,160,129,69,49,99,48
-228,-179,49,204,-138,-65,160,129,70,50,101,49
-228,-179,49,204,-138,-65,160,130,70,51,101,50
-226,-178,48,202,-137,-65,160,131,70,51,100,50
-224,-177,47,201,-135,-65,160,132,72,51,99,50
-222,-176,46,199,-134,-65,160,133,74,50,97,48
-221,-176,45,199,-133,-65,160,134,76,51,97,48
-222,-176,46,199,-134,-65,160,135,78,52,97,48
-223,-176,47,200,-135,-64,161,135,80,55,99,49
-225,-176,49,201,-137,-63,160,134,80,57,100,49
-226,-176,50,201,-138,-63,160,134,82,60,103,51
-226,-176,50,201,-138,-63,160,134,83,62,105,53
-226,-176,50,201,-138,-63,160,134,84,63,106,53
-224,-176,48,200,-136,-64,160,136,85,63,105,53
-221,-175,46,198,-133,-64,160,138,86,62,104,52
-219,-174,45,197,-132,-64,159,139,88,62,103,51
-218,-174,44,196,-131,-65,158,139,90,62,102,50
-218,-174,44,196,-131,-65,158,140,93,64,102,50
-219,-174,45,197,-132,-64,158,141,96,67,104,52
-220,-173,47,197,-133,-63,158,142,98,71,106,53
-221,-172,49,197,-135,-61,159,142,99,74,109,55
-222,-173,49,198,-135,-62,158,142,101,76,112,56
-221,-173,48,197,-134,-62,158,144,103,77,113,57
-218,-172,46,195,-132,-63,158,146,105,78,112,57
-215,-170,45,193,-130,-62,157,146,107,77,111,56
-213,-169,44,191,-128,-62,157,148,109,78,111,56
-212,-167,45,190,-128,-61,156,148,111,79,111,56
-212,-166,46,189,-129,-60,156,150,115,82,113,57
-211,-166,45,189,-128,-60,155,150,117,85,114,57
-213,-166,47,190,-130,-59,156,151,120,90,118,60
-214,-167,47,191,-130,-60,156,152,123,94,122,62
-215,-167,48,191,-131,-59,155,151,124,97,123,63
-213,-167,46,190,-129,-60,154,152,126,99,125,64
-209,-164,45,187,-127,-59,154,154,127,101,125,65
-206,-161,45,184,-125,-58,154,157,129,104,125,66
-204,-161,43,183,-123,-59,153,158,132,105,125,66
-203,-160,43,182,-123,-58,153,160,135,108,126,66
-203,-159,44,181,-123,-57,152,160,138,111,127,65
-204,-159,45,182,-124,-57,152,161,142,115,130,68
-205,-160,45,183,-125,-57,151,161,144,119,132,70
-205,-160,45,183,-125,-57,151,161,146,122,136,72
-204,-159,45,182,-124,-57,151,162,148,127,140,76
-202,-158,44,180,-123,-57,150,162,149,129,142,77
-200,-157,43,179,-121,-57,150,163,150,131,143,77
-197,-155,42,176,-119,-56,148,164,152,132,143,77
-194,-154,40,174,-117,-57,148,165,155,135,145,78
-193,-153,40,173,-116,-56,147,165,157,138,145,79
-192,-152,40,172,-116,-56,145,165,158,140,146,80
-193,-151,42,172,-117,-54,144,165,160,144,149,81
-193,-150,43,172,-118,-53,143,164,162,148,153,84
-193,-150,43,172,-118,-53,143,163,163,151,156,86
-191,-149,42,170,-116,-53,142,163,162,153,158,88
-189,-148,41,169,-115,-53,141,162,161,155,160,89
-188,-146,42,167,-115,-52,140,162,161,156,161,90
-186,-145,41,166,-113,-52,140,163,162,157,162,91
-184,-145,39,165,-111,-53,139,163,163,158,162,92
-182,-144,38,163,-110,-53,138,163,163,159,163,92
-181,-143,38,162,-109,-52,138,162,164,160,165,94
-183,-143,40,163,-111,-51,137,161,164,162,166,95
-185,-144,41,165,-113,-51,136,159,163,164,169,97
-187,-144,43,166,-115,-50,136,158,162,167,172,99
-186,-143,43,165,-114,-50,134,156,159,167,173,100
-185,-142,43,164,-114,-49,134,156,157,168,174,101
-182,-141,41,162,-111,-50,132,154,154,165,173,100
-180,-140,40,160,-110,-50,132,153,151,163,172,100
-179,-140,39,160,-109,-50,132,152,149,161,171,99
-180,-140,40,160,-110,-50,131,150,146,158,170,98
-182,-140,42,161,-112,-49,131,148,143,157,170,99
-184,-141,43,163,-113,-49,130,145,140,155,170,99
-187,-141,46,164,-116,-47,130,143,135,153,170,100
-189,-142,47,166,-118,-47,130,140,131,150,170,100
-190,-142,48,166,-119,-47,129,137,125,146,169,100
-190,-141,49,166,-119,-46,128,135,119,140,166,99
-190,-142,48,166,-119,-47,128,132,113,134,163,96
-190,-143,47,167,-118,-48,130,131,109,128,159,95
-191,-143,48,167,-119,-47,131,130,104,121,155,93
-191,-144,47,168,-119,-48,132,129,99,116,152,90
-193,-145,48,169,-120,-48,133,127,95,112,149,88
-197,-146,51,172,-124,-47,134,126,91,108,147,86
-202,-148,54,175,-128,-47,135,124,87,103,145,86
-205,-150,55,178,-130,-47,136,122,83,100,143,85
-207,-151,56,179,-131,-47,137,121,79,95,141,84
-208,-152,56,180,-132,-48,139,121,75,90,139,83
-207,-153,54,180,-130,-49,140,120,71,85,135,81
-206,-154,52,180,-129,-51,141,120,68,79,132,78
-207,-155,52,181,-129,-51,141,118,64,73,127,74
-208,-156,52,182,-130,-52,142,118,61,69,124,72
-210,-157,53,184,-131,-52,143,118,59,66,122,70
-212,-157,55,185,-133,-51,145,117,57,63,120,69
-215,-159,56,187,-135,-51,145,116,55,61,119,68
-217,-160,57,189,-137,-51,146,114,52,58,118,67
-219,-161,58,190,-138,-51,146,113,49,56,117,66
-220,-162,58,191,-139,-52,147,114,47,54,116,66
-219,-162,57,191,-138,-52,149,115,45,51,115,65
-218,-162,56,190,-137,-53,149,115,43,48,112,63
-217,-163,54,190,-135,-54,150,115,42,45,110,61
-217,-164,53,191,-135,-55,151,115,42,43,109,60
-218,-164,54,191,-136,-55,150,114,40,40,107,58
-220,-165,55,193,-137,-55,151,114,39,40,107,58
-222,-166,56,194,-139,-55,151,113,38,40,107,58
-224,-166,58,195,-141,-54,151,113,37,40,107,58
-226,-167,59,197,-142,-54,152,112,36,39,107,58
-227,-168,59,198,-143,-54,152,112,35,37,107,57
-225,-168,57,197,-141,-55,153,113,34,36,106,57
-222,-168,54,195,-138,-57,154,113,34,35,104,56
-221,-168,53,195,-137,-57,154,113,33,34,103,55
-220,-168,52,194,-136,-58,154,114,33,34,102,55
-220,-168,52,194,-136,-58,154,113,33,33,102,55
-223,-168,55,196,-139,-56,154,113,34,34,102,55
-225,-169,56,197,-140,-56,154,112,33,34,103,56
-227,-169,58,198,-142,-55,154,111,33,34,103,56
-228,-170,58,199,-143,-56,154,110,31,33,103,56
-229,-170,59,200,-144,-55,155,112,32,33,104,57
-227,-170,57,199,-142,-56,155,112,31,32,103,56
-224,-169,55,197,-139,-57,155,113,32,31,101,55
-222,-169,53,196,-137,-58,155,114,32,30,99,53
-221,-169,52,195,-136,-58,155,114,33,30,99,53
-222,-170,52,196,-137,-59,155,113,33,30,98,52
-224,-170,54,197,-139,-58,155,113,33,31,99,53
-226,-170,56,198,-141,-57,155,112,33,32,100,54
-228,-170,58,199,-143,-56,154,112,32,32,101,54
-229,-170,59,200,-144,-55,155,112,32,33,102,56
-228,-170,58,199,-143,-56,154,112,31,32,101,55
-226,-169,57,198,-141,-56,154,112,31,30,100,54
-224,-169,55,197,-139,-57,155,114,31,31,100,54
-222,-168,54,195,-138,-57,156,115,31,30,99,53
-221,-168,53,195,-137,-57,155,114,31,30,97,52
-222,-169,53,196,-137,-58,155,114,33,31,98,53
-223,-169,54,196,-138,-57,154,114,33,31,98,53
-225,-169,56,197,-140,-56,154,114,33,32,100,54
-226,-168,58,197,-142,-55,154,113,33,33,101,55
-227,-168,59,198,-143,-54,153,112,33,33,102,56
-226,-168,58,197,-142,-55,153,113,33,33,101,56
-225,-168,57,197,-141,-55,153,113,33,32,101,55
-223,-168,55,196,-139,-56,153,114,32,31,100,53
-222,-168,54,195,-138,-57,154,115,33,31,100,53
-222,-168,54,195,-138,-57,154,116,34,32,100,52
-222,-168,54,195,-138,-57,154,116,34,32,100,53
-223,-167,56,195,-139,-55,153,115,33,32,101,53
-225,-168,57,197,-141,-55,154,115,34,33,102,54
-227,-168,59,198,-143,-54,153,113,33,33,103,55
-227,-168,59,198,-143,-54,153,113,33,33,103,55
-226,-167,59,197,-142,-54,153,113,33,34,104,56
-225,-167,58,196,-141,-54,153,113,32,33,103,55
-224,-167,57,196,-140,-55,153,114,32,32,102,54
-223,-167,56,195,-139,-55,153,116,33,32,101,54
-222,-167,55,195,-138,-56,153,116,33,32,100,53
-221,-166,55,194,-138,-55,154,117,35,33,102,54
-221,-166,55,194,-138,-55,154,116,35,34,103,54
-223,-166,57,195,-140,-54,152,115,35,35,103,54
-225,-165,60,195,-142,-52,152,114,35,36,105,55
-225,-165,60,195,-142,-52,151,113,35,35,105,55
-225,-165,60,195,-142,-52,151,113,34,36,106,55
-224,-165,59,195,-141,-53,151,113,33,35,105,55
-222,-165,57,194,-139,-54,152,114,33,36,105,55
-219,-164,55,192,-137,-54,151,113,33,35,103,54
-218,-164,54,191,-136,-55,152,113,34,35,103,54
-218,-164,54,191,-136,-55,152,113,34,35,104,54
-221,-165,56,193,-138,-54,152,114,34,36,104,55
-225,-165,60,195,-142,-52,152,114,35,36,106,56
-226,-166,60,196,-143,-53,151,112,34,35,106,55
-226,-166,60,196,-143,-53,151,111,33,35,106,55
-226,-166,60,196,-143,-53,152,111,33,36,107,56
-225,-166,59,196,-142,-53,152,112,33,37,106,56
-223,-165,58,194,-140,-53,152,112,32,36,105,54
-220,-164,56,192,-138,-54,152,113,32,35,104,54
-219,-164,55,192,-137,-54,151,113,33,35,104,54
-220,-164,56,192,-138,-54,152,113,34,36,105,54
-222,-164,58,193,-140,-53,151,111,34,36,105,54
-224,-165,59,195,-141,-53,151,111,34,37,106,55
-226,-165,61,196,-143,-52,151,111,33,38,108,57
-226,-165,61,196,-143,-52,151,111,32,38,108,58
-225,-165,60,195,-142,-52,151,111,31,38,108,58
-224,-165,59,195,-141,-53,150,110,30,37,106,57
-223,-165,58,194,-140,-53,151,110,30,36,106,57
-222,-165,57,194,-139,-54,152,111,30,35,105,56
-221,-165,56,193,-138,-54,152,111,30,34,104,54
-221,-164,57,193,-139,-53,152,111,31,34,105,55
-221,-164,57,193,-139,-53,152,112,31,35,106,57
-222,-164,58,193,-140,-53,151,110,30,35,105,57
-225,-166,59,196,-142,-53,151,109,30,37,107,58
-226,-166,60,196,-143,-53,151,109,29,37,108,59
-224,-166,58,195,-141,-54,152,110,29,38,109,59
-223,-165,58,194,-140,-53,152,109,28,37,108,58
-221,-165,56,193,-138,-54,151,109,27,34,106,56
-220,-166,54,193,-137,-56,151,109,27,33,104,56
-220,-166,54,193,-137,-56,152,110,27,32,103,55
-220,-166,54,193,-137,-56,152,110,27,32,103,55
-221,-166,55,194,-138,-55,152,111,28,34,104,56
-222,-166,56,194,-139,-55,151,109,28,34,104,56
-225,-166,59,196,-142,-53,151,108,28,35,106,57
-227,-167,60,197,-143,-53,152,109,28,36,107,58
-226,-166,60,196,-143,-53,152,108,27,34,106,58
-224,-166,58,195,-141,-54,152,109,27,34,105,57
-222,-166,56,194,-139,-55,151,109,26,33,104,55
-220,-166,54,193,-137,-56,149,109,26,31,102,54
-219,-166,53,193,-136,-56,149,110,27,31,102,54
-220,-166,54,193,-137,-56,149,109,27,31,102,53
-221,-166,55,194,-138,-55,150,109,27,32,103,53
-223,-166,57,195,-140,-54,149,108,26,32,103,53
-225,-166,59,196,-142,-53,150,107,26,33,104,54
-225,-165,60,195,-142,-52,151,107,26,33,105,55
-225,-165,60,195,-142,-52,151,107,25,33,105,55
-224,-166,58,195,-141,-54,152,108,25,33,103,55
-222,-166,56,194,-139,-55,151,107,24,31,101,54
-220,-167,53,194,-136,-57,151,108,24,30,100,53
-219,-167,52,193,-135,-57,150,107,23,29,99,51
-220,-166,54,193,-137,-56,151,106,23,29,99,51
-221,-166,55,194,-138,-55,152,107,25,31,101,53
-223,-166,57,195,-140,-54,151,106,25,31,101,53
-225,-167,58,196,-141,-54,151,106,25,32,102,53
-226,-167,59,197,-142,-54,152,106,24,32,103,54
-225,-167,58,196,-141,-54,151,105,22,30,101,53
-224,-168,56,196,-140,-56,151,106,22,30,100,53
-222,-167,55,195,-138,-56,150,105,21,28,99,52
-221,-167,54,194,-137,-56,150,106,21,28,99,51
-221,-167,54,194,-137,-56,150,106,21,28,98,50
-221,-167,54,194,-137,-56,150,106,22,28,98,51
-221,-166,55,194,-138,-55,150,106,22,29,98,52
-222,-166,56,194,-139,-55,150,106,21,31,99,51
-224,-167,57,196,-140,-55,150,105,21,32,100,52
-226,-167,59,197,-142,-54,151,105,21,33,101,53
-226,-168,58,197,-142,-55,151,106,20,32,101,53
-225,-168,57,197,-141,-55,152,106,21,32,100,53
-223,-168,55,196,-139,-56,151,106,20,29,99,52
-221,-168,53,195,-137,-57,151,106,20,27,97,51
-220,-168,52,194,-136,-58,151,106,20,27,97,51
-219,-168,51,194,-135,-58,151,106,20,27,97,51
-221,-169,52,195,-136,-58,151,106,20,29,98,51
-223,-170,53,197,-138,-58,152,106,21,30,99,52
-226,-170,56,198,-141,-57,152,105,21,30,100,53
-227,-171,56,199,-141,-57,151,104,20,30,100,53
-227,-170,57,199,-142,-56,151,104,20,30,101,54
"
		-226","
		-169","
		57","
		198","
		-141","
		-56","
		151","
		105","
		19","
		30","
		100","
		53"
-225,-169,56,197,-140,-56,152,106,20,30,99,52
-224,-169,55,197,-139,-57,151,107,21,30,98,51
-223,-168,55,196,-139,-56,150,107,20,29,97,50
-222,-168,54,195,-138,-57,150,107,20,29,97,50
-224,-168,56,196,-140,-56,150,106,20,29,97,50
-225,-169,56,197,-140,-56,150,106,21,30,99,51
-226,-169,57,198,-141,-56,150,105,20,30,100,51
-226,-169,57,198,-141,-56,150,104,19,30,100,51
-227,-170,57,199,-142,-56,151,104,19,30,100,52
-226,-170,56,198,-141,-57,151,105,19,29,100,52
-224,-169,55,197,-139,-57,151,105,19,28,99,52
-222,-169,53,196,-137,-58,150,105,19,28,99,51
-221,-168,53,195,-137,-57,150,105,19,28,97,50
-221,-168,53,195,-137,-57,150,106,20,28,97,50
-222,-168,54,195,-138,-57,150,106,21,29,99,50
-224,-169,55,197,-139,-57,151,106,22,30,100,51
-226,-169,57,198,-141,-56,150,105,21,30,100,50
-226,-170,56,198,-141,-57,151,105,21,31,102,52
-227,-170,57,199,-142,-56,150,105,21,30,102,52
-227,-170,57,199,-142,-56,150,105,21,30,101,52
-225,-169,56,197,-140,-56,150,105,20,29,100,51
-222,-169,53,196,-137,-58,150,105,19,28,98,49
-221,-169,52,195,-136,-58,150,105,19,27,97,49
-222,-169,53,196,-137,-58,150,105,18,26,96,48
-224,-170,54,197,-139,-58,151,105,19,27,97,48
-225,-170,55,198,-140,-57,151,104,19,27,97,48
-226,-170,56,198,-141,-57,152,104,20,29,100,51
-226,-170,56,198,-141,-57,152,105,20,29,101,52
-225,-169,56,197,-140,-56,151,104,19,29,100,51
-224,-169,55,197,-139,-57,151,105,20,29,100,51
-222,-169,53,196,-137,-58,150,105,19,28,99,51
-220,-169,51,195,-135,-59,149,105,18,27,97,50
-220,-168,52,194,-136,-58,149,106,18,27,97,49
-221,-168,53,195,-137,-57,149,105,18,26,96,48
-222,-168,54,195,-138,-57,149,104,19,27,97,49
-224,-168,56,196,-140,-56,149,103,18,27,97,49
-225,-169,56,197,-140,-56,150,104,19,30,99,50
-226,-170,56,198,-141,-57,151,104,19,30,100,50
-227,-170,57,199,-142,-56,151,103,18,30,99,50
-226,-170,56,198,-141,-57,152,104,18,29,98,49
-224,-169,55,197,-139,-57,151,104,18,29,97,49
-222,-169,53,196,-137,-58,151,104,19,28,97,48
-220,-169,51,195,-135,-59,150,104,19,28,96,48
-220,-169,51,195,-135,-59,150,104,19,28,95,47
-222,-169,53,196,-137,-58,151,105,21,30,97,48
-224,-170,54,197,-139,-58,151,105,22,31,99,50
-225,-170,55,198,-140,-57,151,104,21,31,99,51
-226,-171,55,199,-140,-58,151,103,21,31,101,51
-226,-170,56,198,-141,-57,151,103,20,30,101,51
-225,-169,56,197,-140,-56,151,103,20,30,100,51
-223,-168,55,196,-139,-56,150,103,20,29,99,51
-221,-168,53,195,-137,-57,150,103,20,28,98,50
-220,-168,52,194,-136,-58,150,104,20,27,97,50
-221,-169,52,195,-136,-58,150,104,21,28,97,50
-223,-170,53,197,-138,-58,150,104,21,29,98,50
-225,-171,54,198,-139,-58,151,105,22,30,99,50
-227,-172,55,200,-141,-58,152,105,22,31,101,51
-227,-171,56,199,-141,-57,151,103,20,30,100,50
-225,-171,54,198,-139,-58,151,103,19,30,100,50
-223,-170,53,197,-138,-58,151,103,19,29,99,50
-221,-170,51,196,-136,-59,150,103,18,28,98,49
-219,-170,49,195,-134,-60,149,103,18,27,97,47
-220,-169,51,195,-135,-59,149,104,19,27,96,47
-221,-169,52,195,-136,-58,151,105,20,29,97,48
-222,-169,53,196,-137,-58,150,105,20,29,98,48
-223,-169,54,196,-138,-57,149,104,19,29,98,48
-224,-170,54,197,-139,-58,149,104,20,30,99,49
-226,-170,56,198,-141,-57,150,105,20,31,100,50
-226,-170,56,198,-141,-57,150,104,20,30,100,49
-224,-170,54,197,-139,-58,149,103,18,29,98,48
-222,-170,52,196,-137,-59,148,103,18,28,97,46
-220,-170,50,195,-135,-60,148,104,18,28,96,45
-220,-170,50,195,-135,-60,149,105,19,28,96,45
-220,-169,51,195,-135,-59,149,105,18,27,95,45
-221,-170,51,196,-136,-59,150,104,19,28,97,46
-223,-170,53,197,-138,-58,150,104,20,30,99,48
-224,-170,54,197,-139,-58,150,103,20,30,100,48
-224,-169,55,197,-139,-57,150,103,20,29,101,49
-223,-169,54,196,-138,-57,149,102,18,28,100,49
-222,-169,53,196,-137,-58,149,103,18,29,100,49
-220,-168,52,194,-136,-58,149,103,17,29,99,49
-219,-169,50,194,-134,-59,149,104,18,28,97,47
-219,-169,50,194,-134,-59,150,104,18,27,96,46
-220,-168,52,194,-136,-58,150,104,18,27,97,46
-220,-168,52,194,-136,-58,150,104,19,28,98,46
-221,-168,53,195,-137,-57,150,104,19,29,100,46
-223,-167,56,195,-139,-55,151,105,20,31,101,47
-224,-167,57,196,-140,-55,151,104,19,32,102,47
-223,-166,57,195,-140,-54,150,104,18,30,101,46
-222,-166,56,194,-139,-55,150,104,18,30,101,47
-220,-164,56,192,-138,-54,150,105,18,30,101,47
-217,-162,55,190,-136,-53,150,105,19,29,100,47
-215,-160,55,188,-135,-52,150,106,21,30,101,48
-215,-158,57,187,-136,-50,150,106,22,31,101,49
-217,-157,60,187,-138,-48,150,106,23,32,103,50
-219,-157,62,188,-140,-47,150,106,25,34,106,52
-220,-157,63,189,-141,-47,150,105,24,35,107,53
-221,-156,65,189,-143,-45,150,105,24,36,107,53
-221,-155,66,188,-143,-44,150,105,25,36,107,53
-220,-154,66,187,-143,-44,150,106,25,36,106,52
-218,-153,65,186,-141,-44,150,106,26,36,106,52
-216,-152,64,184,-140,-44,151,107,26,36,106,52
-215,-152,63,184,-139,-44,151,108,27,36,106,53
-214,-151,63,183,-138,-44,149,107,27,35,105,52
-215,-151,64,183,-139,-43,149,107,28,36,106,53
-217,-151,66,184,-141,-42,148,106,28,37,107,53
-219,-150,69,185,-144,-40,148,106,29,38,109,54
-219,-149,70,184,-144,-39,146,105,29,39,110,54
-217,-146,71,182,-144,-37,144,105,30,40,111,56
-214,-144,70,179,-142,-37,143,105,31,41,112,57
-211,-143,68,177,-139,-37,143,106,33,43,113,58
-209,-142,67,176,-138,-37,143,107,34,43,114,58
-208,-140,68,174,-138,-36,142,107,34,43,114,59
-208,-139,69,174,-138,-35,140,105,33,42,113,60
-209,-139,70,174,-139,-34,138,103,32,43,115,61
-210,-139,71,175,-140,-34,135,100,30,44,116,62
-210,-139,71,175,-140,-34,133,97,29,44,118,63
-211,-139,72,175,-141,-33,132,97,30,46,120,65
-211,-139,72,175,-141,-33,133,98,31,47,121,66
-209,-139,70,174,-139,-34,133,99,31,47,121,66
-208,-140,68,174,-138,-36,132,98,30,45,119,65
-208,-142,66,175,-137,-38,131,97,27,42,116,62
-208,-145,63,177,-135,-41,134,98,27,40,115,60
-208,-147,61,178,-134,-43,137,100,27,39,113,59
-209,-150,59,180,-134,-45,139,101,26,38,112,58
-211,-152,59,182,-135,-46,140,101,25,37,111,58
-214,-153,61,184,-137,-46,140,100,24,36,110,57
-215,-156,59,186,-137,-48,140,99,22,35,109,56
-216,-159,57,188,-136,-51,141,101,22,35,110,56
-216,-160,56,188,-136,-52,142,101,22,34,108,55
-214,-161,53,188,-133,-54,143,103,23,34,107,55
-212,-164,48,188,-130,-58,144,104,23,32,104,52
-212,-166,46,189,-129,-60,145,104,22,30,102,49
-214,-167,47,191,-130,-60,146,103,20,27,100,47
-217,-170,47,194,-132,-61,147,102,18,25,98,45
-221,-173,48,197,-134,-62,147,100,16,24,96,43
-224,-175,49,200,-136,-63,148,99,16,24,96,43
-225,-175,50,200,-137,-62,148,99,15,23,96,43
-225,-174,51,200,-138,-61,148,100,14,24,96,44
-223,-174,49,199,-136,-62,148,100,14,23,95,43
-222,-174,48,198,-135,-63,149,101,15,22,93,42
-222,-175,47,199,-134,-64,148,100,14,20,91,40
-222,-176,46,199,-134,-65,148,100,13,19,90,39
-221,-175,46,198,-133,-64,148,100,14,20,90,39
-221,-175,46,198,-133,-64,149,101,14,21,91,39
-223,-176,47,200,-135,-64,149,101,15,22,93,41
-224,-177,47,201,-135,-65,149,100,14,22,94,41
-225,-178,47,202,-136,-65,149,101,15,23,95,42
-224,-177,47,201,-135,-65,148,99,14,22,94,41
-223,-177,46,200,-134,-65,149,100,14,22,93,41
-222,-177,45,200,-133,-66,149,100,14,21,92,40
-220,-176,44,198,-132,-66,149,100,13,19,91,39
-219,-176,43,198,-131,-66,149,100,13,18,90,38
-220,-176,44,198,-132,-66,150,101,14,19,91,39
-222,-177,45,200,-133,-66,151,102,15,21,92,40
-224,-178,46,201,-135,-66,151,102,15,22,93,40
-226,-179,47,203,-136,-66,151,101,14,22,93,41
-227,-179,48,203,-137,-65,150,101,13,21,93,41
-227,-179,48,203,-137,-65,150,101,14,21,94,41
-226,-179,47,203,-136,-66,150,101,14,21,93,40
-224,-179,45,202,-134,-67,149,101,12,20,91,38
-222,-179,43,201,-132,-68,150,101,12,19,89,37
-220,-178,42,199,-131,-68,150,101,12,19,89,36
-220,-179,41,200,-130,-69,152,102,13,20,90,37
-222,-180,42,201,-132,-69,153,102,13,21,91,38
-224,-181,43,203,-133,-69,153,102,14,21,92,40
-226,-181,45,204,-135,-68,152,101,13,21,92,40
-228,-182,46,205,-137,-68,152,101,13,21,93,40
-227,-181,46,204,-136,-67,153,101,13,21,93,40
-225,-181,44,203,-134,-68,152,100,12,20,92,39
-223,-180,43,202,-133,-68,152,100,11,19,91,39
-221,-180,41,201,-131,-69,151,100,10,18,90,38
-220,-179,41,200,-130,-69,152,101,11,17,90,38
-220,-179,41,200,-130,-69,152,101,11,18,90,38
-221,-179,42,200,-131,-68,152,101,12,18,91,38
-223,-180,43,202,-133,-68,153,101,13,20,93,39
-224,-180,44,202,-134,-68,153,101,12,21,94,41
-226,-180,46,203,-136,-67,153,101,13,22,95,41
-226,-180,46,203,-136,-67,153,101,13,22,95,41
-224,-179,45,202,-134,-67,153,101,12,22,94,41
-221,-178,43,200,-132,-67,153,101,12,21,94,41
-220,-178,42,199,-131,-68,152,100,11,19,91,38
-221,-178,43,200,-132,-67,152,100,11,18,91,38
-222,-178,44,200,-133,-67,151,99,10,18,90,38
-223,-178,45,201,-134,-66,151,99,10,19,91,38
-224,-177,47,201,-135,-65,152,99,11,20,93,39
-226,-178,48,202,-137,-65,153,100,12,21,93,40
-227,-181,46,204,-136,-67,156,105,15,22,92,38
-227,-186,41,207,-134,-72,159,111,20,22,87,32
-226,-191,35,209,-130,-78,166,119,27,24,83,28
-225,-194,31,210,-128,-81,171,126,34,27,79,23
-224,-193,31,209,-127,-81,175,133,43,33,79,20
-224,-191,33,208,-128,-79,177,137,50,39,80,19
-224,-188,36,206,-130,-76,179,139,57,47,84,20
-225,-183,42,204,-133,-70,180,141,62,55,90,24
-226,-179,47,203,-136,-66,180,143,67,63,98,28
-227,-177,50,202,-138,-63,179,144,72,72,108,34
-225,-175,50,200,-137,-62,178,147,80,86,122,42
-221,-168,53,195,-137,-57,177,150,93,108,141,54
-212,-155,57,184,-134,-49,173,152,111,140,170,72
-200,-139,61,170,-130,-39,166,151,131,183,207,95
-187,-121,66,154,-126,-27,154,148,151,232,252,121
-173,-101,72,137,-122,-14,140,140,164,281,301,152
-162,-79,83,121,-122,2,125,126,163,317,347,185
-159,-59,100,109,-129,21,110,104,139,331,383,214
-161,-38,123,100,-142,43,94,72,91,329,413,238
-164,-14,150,89,-157,68,73,34,37,325,445,264
-167,11,178,78,-172,95,53,0,-7,328,479,292
-171,21,192,75,-181,107,47,-16,-34,328,496,305
-182,12,194,85,-188,103,57,-9,-47,312,477,293
-198,-5,193,102,-195,94,77,8,-56,269,421,263
-213,-21,192,117,-202,86,92,18,-75,193,340,224
-227,-40,187,134,-207,74,99,18,-109,91,250,181
-240,-59,181,150,-210,61,103,12,-151,-9,166,138
-253,-79,174,166,-213,48,111,10,-184,-91,97,101
-261,-106,155,184,-208,25,122,15,-206,-156,43,70
-266,-136,130,201,-198,-3,137,27,-216,-205,4,43
-269,-166,103,218,-186,-31,157,46,-209,-218,-17,22
-269,-188,81,229,-175,-53,173,66,-185,-195,-20,5
-268,-203,65,236,-166,-69,188,83,-162,-165,-17,-5
-270,-213,57,242,-163,-78,205,96,-150,-153,-19,-15
-272,-219,53,246,-162,-83,219,101,-148,-152,-24,-24
-273,-224,49,249,-161,-87,221,101,-147,-149,-26,-29
-272,-228,44,250,-158,-92,212,97,-145,-144,-24,-31
-271,-231,40,251,-155,-95,205,96,-138,-135,-20,-30
-270,-231,39,251,-154,-96,202,102,-124,-122,-12,-27
-267,-228,39,248,-153,-94,200,111,-107,-106,-3,-22
-261,-222,39,242,-150,-91,198,119,-90,-90,8,-16
-253,-216,37,235,-145,-89,197,129,-70,-73,21,-8
-244,-210,34,227,-139,-88,197,139,-47,-52,35,0
-235,-204,31,220,-133,-86,193,145,-29,-33,47,8
-229,-199,30,214,-129,-84,189,144,-17,-20,55,13
-227,-196,31,212,-129,-82,186,140,-9,-10,62,18
-228,-193,35,211,-131,-79,178,130,-6,-4,67,21
-228,-189,39,209,-133,-75,171,119,-3,1,72,25
-228,-185,43,207,-135,-71,167,114,2,5,75,28
-229,-183,46,206,-137,-68,166,114,8,10,78,29
-230,-182,48,206,-139,-67,165,114,12,14,80,30
-229,-180,49,205,-139,-65,164,113,16,19,83,31
-226,-178,48,202,-137,-65,161,113,20,22,86,32
-223,-176,47,200,-135,-64,160,114,22,25,88,34
-220,-174,46,197,-133,-64,158,113,22,24,88,34
-218,-173,45,196,-131,-64,158,114,22,25,89,34
-218,-172,46,195,-132,-63,159,115,24,27,90,35
-219,-172,47,196,-133,-62,159,115,25,27,90,35
-220,-173,47,197,-133,-63,160,115,27,28,91,36
-222,-174,48,198,-135,-63,160,115,29,29,92,37
-223,-175,48,199,-135,-63,159,114,30,31,92,37
-223,-175,48,199,-135,-63,159,114,32,32,94,36
-222,-174,48,198,-135,-63,158,114,33,34,95,37
-219,-173,46,196,-132,-63,157,112,31,33,95,37
-217,-171,46,194,-131,-62,156,112,30,33,95,38
-216,-172,44,194,-130,-64,156,112,29,32,95,37
-217,-172,45,195,-131,-63,156,113,29,32,95,37
-217,-171,46,194,-131,-62,156,114,30,32,95,38
-219,-170,49,195,-134,-60,157,114,31,31,95,38
-221,-172,49,197,-135,-61,159,115,33,33,96,39
-222,-173,49,198,-135,-62,158,114,34,34,96,38
-221,-173,48,197,-134,-62,158,114,35,35,97,39
-219,-173,46,196,-132,-63,157,113,35,35,96,38
-217,-172,45,195,-131,-63,155,112,34,35,96,38
-216,-172,44,194,-130,-64,155,113,35,35,97,38
-215,-171,44,193,-129,-63,155,113,34,35,97,38
-215,-170,45,193,-130,-62,156,115,35,36,97,39
-216,-169,47,193,-131,-61,157,116,36,36,98,39
-217,-169,48,193,-132,-60,158,117,37,36,98,39
-218,-171,47,195,-132,-62,158,117,39,37,98,39
-220,-172,48,196,-134,-62,158,115,39,37,97,38
-221,-173,48,197,-134,-62,157,115,39,39,96,37
-219,-172,47,196,-133,-62,156,114,39,40,97,37
-216,-171,45,194,-130,-63,156,114,39,41,97,38
-214,-169,45,192,-129,-62,154,113,37,39,96,38
-213,-169,44,191,-128,-62,154,114,37,39,96,37
-214,-169,45,192,-129,-62,155,115,37,39,95,37
-216,-169,47,193,-131,-61,156,116,39,39,97,38
-218,-170,48,194,-133,-61,158,117,41,41,98,39
-220,-170,50,195,-135,-60,159,118,43,42,99,40
-220,-170,50,195,-135,-60,158,118,43,42,98,40
-220,-170,50,195,-135,-60,158,117,43,42,99,40
-218,-171,47,195,-132,-62,156,115,43,43,99,40
-217,-171,46,194,-131,-62,156,116,43,44,99,41
-215,-169,46,192,-130,-61,155,116,43,44,98,41
-213,-168,45,191,-129,-61,155,117,43,44,98,39
-213,-168,45,191,-129,-61,156,118,44,44,98,39
-215,-168,47,192,-131,-60,156,118,44,44,98,39
-217,-168,49,193,-133,-59,157,119,45,45,99,40
-219,-169,50,194,-134,-59,158,120,47,45,100,40
-219,-169,50,194,-134,-59,157,119,48,46,99,40
-218,-169,49,194,-133,-60,157,119,49,47,100,40
-216,-169,47,193,-131,-61,155,117,48,48,100,39
-214,-169,45,192,-129,-62,154,116,47,48,99,38
-212,-168,44,190,-128,-62,153,116,47,49,99,39
-210,-166,44,188,-127,-61,153,117,47,50,100,39
-211,-166,45,189,-128,-60,153,119,47,49,99,39
-214,-167,47,191,-130,-60,155,120,49,50,101,41
-216,-168,48,192,-132,-60,156,121,51,51,101,41
-217,-169,48,193,-132,-60,156,121,52,51,101,41
-217,-170,47,194,-132,-61,157,122,54,53,102,42
-217,-170,47,194,-132,-61,156,121,55,53,102,42
"
		-216","
		-170","
		46","
		193","
		-131","
		-62","
		154","
		120","
		54","
		54","
		102","
		41"
-214,-169,45,192,-129,-62,154,120,54,55,102,41
-212,-167,45,190,-128,-61,153,121,54,56,102,41
-211,-166,45,189,-128,-60,153,122,54,56,102,41
-210,-164,46,187,-128,-59,153,122,55,56,102,40
-211,-163,48,187,-129,-57,154,124,56,57,103,41
-212,-164,48,188,-130,-58,155,125,58,59,104,42
-213,-165,48,189,-130,-58,156,126,61,61,106,43
-214,-165,49,190,-131,-58,155,125,62,63,106,43
-214,-166,48,190,-131,-59,155,125,63,64,106,44
-214,-166,48,190,-131,-59,154,124,64,66,106,44
-212,-166,46,189,-129,-60,154,125,65,67,107,44
-210,-165,45,188,-127,-60,153,125,65,68,107,44
-208,-163,45,186,-126,-59,151,124,64,68,107,43
-206,-162,44,184,-125,-59,151,125,65,68,107,42
-207,-161,46,184,-126,-57,153,127,67,69,108,43
-209,-161,48,185,-128,-56,154,128,70,72,110,44
-211,-160,51,186,-131,-54,154,129,73,74,110,43
-212,-161,51,187,-131,-55,154,129,75,77,112,44
-212,-162,50,187,-131,-56,153,129,77,79,112,44
-209,-162,47,186,-128,-57,152,128,78,81,113,44
-206,-161,45,184,-125,-58,151,129,80,83,113,44
-204,-159,45,182,-124,-57,151,130,81,84,114,45
-202,-158,44,180,-123,-57,150,131,82,85,115,45
-202,-157,45,180,-123,-56,150,133,84,87,116,46
-203,-156,47,180,-125,-54,151,135,88,89,118,47
-204,-156,48,180,-126,-54,152,137,92,92,120,50
-205,-157,48,181,-126,-54,152,138,94,95,121,51
-205,-157,48,181,-126,-54,151,138,97,98,122,52
-204,-157,47,181,-125,-55,151,138,99,101,124,53
-202,-156,46,179,-124,-55,149,137,101,104,125,53
-199,-155,44,177,-121,-55,148,137,102,106,125,54
-196,-153,43,175,-119,-55,147,138,104,108,127,55
-194,-151,43,173,-118,-54,147,139,106,111,129,55
-194,-151,43,173,-118,-54,148,141,109,115,131,56
-195,-150,45,173,-120,-52,148,142,113,117,133,59
-195,-150,45,173,-120,-52,148,143,115,121,135,61
-197,-150,47,174,-122,-51,147,144,116,124,137,61
-198,-151,47,175,-122,-52,147,144,119,129,141,63
-196,-151,45,174,-120,-53,145,143,122,132,142,63
-194,-149,45,172,-119,-52,144,143,124,135,144,64
-191,-148,43,170,-117,-52,144,144,126,138,145,66
-189,-146,43,168,-116,-51,142,144,126,140,146,66
-186,-145,41,166,-113,-52,141,145,127,143,149,67
-186,-145,41,166,-113,-52,141,147,129,146,152,70
-186,-143,43,165,-114,-50,140,148,131,148,154,71
-186,-142,44,164,-115,-49,142,149,134,152,157,74
-186,-141,45,164,-115,-48,142,150,136,155,161,76
-186,-141,45,164,-115,-48,141,149,138,158,163,78
-185,-142,43,164,-114,-49,140,148,140,161,165,80
-184,-141,43,163,-113,-49,138,147,140,163,166,80
-181,-140,41,161,-111,-49,137,147,141,165,167,81
-177,-139,38,158,-107,-50,135,147,140,166,168,81
-176,-138,38,157,-107,-50,134,146,139,168,169,82
-175,-136,39,156,-107,-48,133,146,139,168,170,83
-175,-135,40,155,-107,-47,133,146,140,170,172,85
-176,-135,41,156,-108,-47,133,146,140,171,174,86
-177,-135,42,156,-109,-46,134,146,141,174,176,88
-178,-135,43,157,-110,-46,133,145,141,175,178,89
-178,-135,43,157,-110,-46,132,144,140,176,179,90
-177,-134,43,156,-110,-45,130,142,138,176,179,90
-174,-133,41,154,-107,-46,129,140,136,177,180,91
-172,-132,40,152,-106,-46,128,139,133,176,181,92
-171,-130,41,151,-106,-44,127,137,131,175,181,92
-170,-129,41,150,-105,-44,126,137,128,174,181,92
-171,-128,43,150,-107,-42,125,136,126,173,181,93
-175,-129,46,152,-110,-41,126,135,124,172,182,95
-178,-131,47,155,-112,-42,126,133,122,171,183,96
-180,-132,48,156,-114,-42,125,130,119,170,183,97
-179,-132,47,156,-113,-42,124,126,114,166,181,95
-179,-132,47,156,-113,-42,123,124,109,162,179,94
-178,-131,47,155,-112,-42,122,122,104,157,177,94
-177,-130,47,154,-112,-41,121,120,99,150,173,92
-177,-130,47,154,-112,-41,122,119,95,145,171,91
-177,-131,46,154,-111,-42,122,118,89,139,168,89
-180,-132,48,156,-114,-42,124,118,86,135,167,89
-184,-133,51,159,-117,-41,125,116,82,130,164,87
-187,-135,52,161,-119,-41,126,115,79,125,161,86
-189,-136,53,163,-121,-41,126,113,74,119,157,83
-191,-137,54,164,-122,-41,126,111,70,113,153,80
-191,-138,53,165,-122,-42,126,109,64,108,149,77
-191,-139,52,165,-121,-43,127,109,61,103,146,75
-192,-140,52,166,-122,-44,128,108,57,97,142,72
-193,-140,53,167,-123,-43,130,108,54,92,139,70
-194,-141,53,168,-123,-44,131,108,51,87,136,68
-196,-142,54,169,-125,-44,133,108,48,82,133,66
-200,-143,57,172,-128,-43,135,108,47,79,131,65
-203,-145,58,174,-130,-43,137,108,45,76,128,64
-205,-148,57,177,-131,-45,137,107,42,72,126,62
-206,-149,57,178,-131,-46,138,106,38,69,123,60
-206,-151,55,179,-130,-48,139,105,36,66,121,59
-206,-152,54,179,-130,-49,138,104,33,62,119,57
-205,-152,53,179,-129,-49,139,104,32,59,117,55
-204,-152,52,178,-128,-50,139,103,29,55,114,53
-205,-152,53,179,-129,-49,140,105,27,52,113,53
-206,-153,53,180,-129,-50,140,104,25,49,111,51
-209,-154,55,182,-132,-49,142,105,25,49,111,51
-212,-156,56,184,-134,-50,143,104,25,47,110,49
-214,-157,57,186,-135,-50,143,103,24,46,108,48
-215,-158,57,187,-136,-50,144,103,24,45,107,48
-214,-158,56,186,-135,-51,144,103,23,44,107,47
-212,-158,54,185,-133,-52,144,103,21,42,105,46
-210,-157,53,184,-131,-52,144,103,19,40,103,44
-209,-156,53,183,-131,-51,144,102,17,38,102,43
-208,-157,51,183,-129,-53,144,103,16,37,101,42
-211,-158,53,185,-132,-52,146,104,17,37,102,44
-213,-159,54,186,-133,-52,147,105,18,37,102,44
-214,-160,54,187,-134,-53,148,104,18,36,101,43
-215,-160,55,188,-135,-52,148,104,18,36,102,43
-215,-161,54,188,-134,-53,147,104,17,37,101,43
-214,-161,53,188,-133,-54,147,103,17,37,101,42
-212,-160,52,186,-132,-54,146,102,16,36,99,41
-211,-159,52,185,-131,-53,145,102,14,35,98,40
-211,-158,53,185,-132,-52,146,102,14,35,98,40
-212,-159,53,186,-132,-53,146,102,14,34,98,40
-213,-159,54,186,-133,-52,147,103,15,35,99,41
-214,-159,55,187,-134,-52,147,104,15,34,99,41
-215,-159,56,187,-135,-51,148,104,16,34,99,41
-216,-160,56,188,-136,-52,148,104,17,34,100,41
-217,-161,56,189,-136,-52,148,103,17,35,100,42
-217,-161,56,189,-136,-52,147,103,16,35,99,41
-215,-161,54,188,-134,-53,146,102,15,34,98,40
-213,-159,54,186,-133,-52,146,102,14,34,97,39
-211,-158,53,185,-132,-52,146,102,15,33,97,39
-210,-158,52,184,-131,-53,145,103,15,33,97,39
-211,-158,53,185,-132,-52,147,105,16,34,99,40
-212,-158,54,185,-133,-52,147,105,16,33,99,40
-214,-158,56,186,-135,-51,148,105,17,34,100,41
-216,-160,56,188,-136,-52,148,105,18,35,100,41
-217,-161,56,189,-136,-52,148,105,19,36,101,42
-215,-160,55,188,-135,-52,146,104,18,36,99,41
-213,-159,54,186,-133,-52,145,103,18,35,99,41
-211,-158,53,185,-132,-52,145,103,18,35,98,41
-210,-157,53,184,-131,-52,144,103,17,35,98,40
-210,-157,53,184,-131,-52,145,104,17,35,98,39
-210,-157,53,184,-131,-52,145,104,18,36,99,40
-212,-157,55,185,-133,-51,146,105,19,37,101,41
-214,-158,56,186,-135,-51,147,106,21,38,102,42
-215,-158,57,187,-136,-50,147,105,20,38,101,42
-215,-158,57,187,-136,-50,146,104,19,38,101,43
-213,-158,55,186,-134,-51,145,103,19,37,100,42
-211,-157,54,184,-132,-51,144,102,18,36,99,41
-210,-157,53,184,-131,-52,143,102,17,35,99,41
-209,-157,52,183,-130,-52,143,102,16,34,99,41
-209,-157,52,183,-130,-52,144,103,17,35,100,42
-210,-156,54,183,-132,-51,145,104,18,37,101,43
-211,-157,54,184,-132,-51,145,104,18,37,101,42
-213,-158,55,186,-134,-51,146,104,19,38,102,43
-213,-158,55,186,-134,-51,145,103,19,38,103,43
-213,-158,55,186,-134,-51,145,103,19,38,103,43
-212,-158,54,185,-133,-52,144,102,18,38,103,43
-211,-158,53,185,-132,-52,143,102,17,38,103,42
-210,-157,53,184,-131,-52,141,101,16,37,101,41
-207,-155,52,181,-129,-51,140,100,15,36,100,40
-207,-155,52,181,-129,-51,141,102,16,37,101,42
-208,-155,53,182,-130,-51,142,103,17,38,102,43
-210,-155,55,183,-132,-50,142,104,18,38,102,43
-212,-156,56,184,-134,-50,143,105,19,39,104,44
-213,-156,57,185,-135,-49,143,104,20,40,105,45
-213,-157,56,185,-134,-50,142,103,19,40,104,45
-212,-157,55,185,-133,-51,142,102,19,39,104,44
-210,-157,53,184,-131,-52,141,101,17,39,104,43
-208,-156,52,182,-130,-52,141,101,16,38,103,43
-207,-155,52,181,-129,-51,141,101,16,38,103,43
-208,-155,53,182,-130,-51,142,103,16,39,104,44
-209,-155,54,182,-131,-50,142,104,16,39,103,44
-210,-156,54,183,-132,-51,143,105,17,39,104,45
-211,-156,55,184,-133,-50,143,105,17,40,104,45
-212,-156,56,184,-134,-50,142,104,17,40,104,44
-212,-156,56,184,-134,-50,142,103,16,39,104,44
-211,-156,55,184,-133,-50,142,103,15,39,104,44
-209,-157,52,183,-130,-52,142,102,15,39,104,44
-207,-156,51,182,-129,-52,141,102,14,38,103,44
-205,-156,49,181,-127,-53,140,102,13,38,103,43
-205,-155,50,180,-127,-52,141,103,14,38,103,43
-208,-155,53,182,-130,-51,143,104,14,39,104,44
-210,-156,54,183,-132,-51,144,104,15,39,103,44
-212,-156,56,184,-134,-50,143,103,14,38,102,44
-212,-157,55,185,-133,-51,143,103,14,38,103,44
-212,-158,54,185,-133,-52,142,102,14,37,103,43
-211,-158,53,185,-132,-52,142,102,13,36,102,43
-210,-158,52,184,-131,-53,141,101,12,35,101,41
-209,-158,51,184,-130,-53,141,101,11,35,100,41
-208,-157,51,183,-129,-53,140,100,10,34,99,41
-207,-157,50,182,-128,-53,140,101,10,33,99,41
-208,-157,51,183,-129,-53,141,102,10,32,99,42
-210,-158,52,184,-131,-53,143,103,11,33,100,42
-211,-158,53,185,-132,-52,144,103,12,33,101,43
-211,-157,54,184,-132,-51,143,102,11,32,100,42
-211,-158,53,185,-132,-52,143,101,11,32,101,43
-210,-159,51,185,-130,-54,143,100,10,32,100,42
-209,-159,50,184,-129,-54,142,99,9,31,98,40
-207,-159,48,183,-127,-55,142,100,8,31,98,40
-208,-159,49,184,-128,-55,141,100,7,30,97,40
-208,-158,50,183,-129,-54,141,100,7,30,97,41
-208,-158,50,183,-129,-54,142,100,7,29,97,41
-208,-157,51,183,-129,-53,142,100,7,28,97,41
-210,-158,52,184,-131,-53,143,101,8,28,97,41
-211,-158,53,185,-132,-52,142,101,8,29,98,42
-212,-159,53,186,-132,-53,142,99,8,28,98,42
-211,-159,52,185,-131,-53,143,99,8,28,98,42
-209,-159,50,184,-129,-54,141,98,6,27,97,41
-208,-158,50,183,-129,-54,141,98,6,27,97,41
-207,-158,49,183,-128,-54,141,98,5,26,96,41
-206,-158,48,182,-127,-55,141,99,5,26,96,41
-208,-159,49,184,-128,-55,141,99,5,26,96,42
-209,-159,50,184,-129,-54,140,99,5,25,96,41
-210,-160,50,185,-130,-55,142,99,5,26,96,42
-211,-160,51,186,-131,-54,142,98,5,25,96,41
-212,-161,51,187,-131,-55,142,98,5,26,96,40
-212,-161,51,187,-131,-55,141,97,4,25,95,39
-211,-161,50,186,-130,-55,141,97,4,26,94,40
-209,-161,48,185,-128,-56,141,97,3,26,94,40
-207,-160,47,184,-127,-56,140,97,3,24,94,39
-207,-160,47,184,-127,-56,141,98,2,23,94,39
-209,-160,49,185,-129,-55,141,99,3,22,94,39
-211,-160,51,186,-131,-54,141,98,3,20,94,39
-212,-161,51,187,-131,-55,142,99,4,21,95,40
-213,-161,52,187,-132,-54,142,98,3,22,95,40
-213,-162,51,188,-132,-55,143,98,3,22,96,40
-212,-162,50,187,-131,-56,141,97,2,21,94,39
-210,-162,48,186,-129,-57,142,97,1,21,94,39
-208,-161,47,185,-127,-57,142,97,1,20,94,38
-207,-161,46,184,-126,-57,141,97,0,19,93,38
-206,-160,46,183,-126,-57,141,98,1,20,94,38
-207,-159,48,183,-127,-55,142,98,1,20,94,38
-208,-160,48,184,-128,-56,142,98,1,19,93,38
-209,-160,49,185,-129,-55,143,99,2,20,94,39
-211,-160,51,186,-131,-54,143,98,2,20,94,39
-211,-161,50,186,-130,-55,143,97,3,20,95,40
-210,-161,49,186,-129,-56,141,96,1,19,93,38
-209,-161,48,185,-128,-56,141,97,1,19,93,38
-207,-160,47,184,-127,-56,140,97,0,18,92,38
-206,-160,46,183,-126,-57,141,98,1,18,92,39
-205,-160,45,183,-125,-57,140,97,0,16,91,37
-207,-160,47,184,-127,-56,141,98,0,17,92,38
-209,-160,49,185,-129,-55,142,98,2,18,93,39
-211,-161,50,186,-130,-55,142,98,3,19,94,40
-212,-162,50,187,-131,-56,142,97,3,18,95,39
-211,-162,49,187,-130,-56,142,96,3,18,94,39
-210,-163,47,187,-128,-58,141,96,2,18,94,39
-209,-162,47,186,-128,-57,140,95,1,18,93,37
-208,-162,46,185,-127,-58,140,95,1,18,93,37
-206,-161,45,184,-125,-58,140,96,0,17,92,37
-205,-160,45,183,-125,-57,139,96,0,16,91,37
-206,-159,47,183,-126,-56,139,97,0,17,91,37
-208,-160,48,184,-128,-56,140,97,1,18,92,37
-209,-160,49,185,-129,-55,141,97,2,19,94,38
-210,-161,49,186,-129,-56,141,96,2,19,94,38
-211,-162,49,187,-130,-56,142,95,2,19,95,38
-211,-163,48,187,-129,-57,141,94,1,18,94,38
-209,-163,46,186,-127,-58,141,94,1,18,93,38
-206,-162,44,184,-125,-59,139,94,0,16,92,36
-205,-161,44,183,-124,-58,140,95,1,16,92,37
-204,-160,44,182,-124,-58,140,95,1,16,91,36
-204,-159,45,182,-124,-57,140,96,1,17,92,36
-206,-160,46,183,-126,-57,141,97,2,18,93,37
-209,-161,48,185,-128,-56,141,96,2,18,93,37
-211,-162,49,187,-130,-56,142,96,3,19,93,38
-210,-162,48,186,-129,-57,142,96,3,19,94,38
-208,-162,46,185,-127,-58,140,96,2,19,94,37
-207,-163,44,185,-125,-59,140,96,2,19,93,37
-206,-162,44,184,-125,-59,139,95,1,18,91,36
-205,-162,43,184,-124,-59,140,96,1,18,91,36
-205,-161,44,183,-124,-58,140,97,2,18,91,36
-206,-161,45,184,-125,-58,140,97,1,17,91,36
-206,-161,45,184,-125,-58,140,96,1,16,91,37
-208,-161,47,185,-127,-57,141,96,3,17,92,38
-210,-162,48,186,-129,-57,141,96,3,17,93,38
-211,-163,48,187,-129,-57,141,95,2,17,93,37
-210,-164,46,187,-128,-59,140,95,2,18,93,37
-208,-163,45,186,-126,-59,140,94,1,17,92,36
-207,-162,45,185,-126,-58,140,95,1,17,92,36
-206,-162,44,184,-125,-59,139,95,0,17,91,35
-205,-161,44,183,-124,-58,139,96,1,17,90,35
-205,-161,44,183,-124,-58,140,96,1,18,91,35
-208,-161,47,185,-127,-57,141,96,3,19,92,36
-210,-162,48,186,-129,-57,141,97,4,19,93,37
-211,-163,48,187,-129,-57,140,96,3,19,92,36
-211,-164,47,188,-129,-58,141,97,3,20,93,38
-210,-164,46,187,-128,-59,140,95,2,19,92,37
-208,-164,44,186,-126,-60,140,96,3,20,92,37
-206,-164,42,185,-124,-61,140,95,3,20,92,36
-205,-163,42,184,-123,-60,139,95,2,18,90,35
-206,-163,43,185,-124,-60,140,96,3,19,90,35
-207,-162,45,185,-126,-58,140,95,3,18,90,36
-207,-163,44,185,-125,-59,140,94,3,18,90,36
-209,-164,45,187,-127,-59,141,95,4,19,91,37
-210,-164,46,187,-128,-59,140,94,4,19,91,36
-211,-165,46,188,-128,-59,140,95,5,20,92,37
-210,-165,45,188,-127,-60,140,95,4,19,92,37
-208,-165,43,187,-125,-61,139,94,3,18,90,37
-206,-164,42,185,-124,-61,139,94,2,18,90,36
-204,-163,41,184,-122,-61,138,95,2,18,90,35
-204,-163,41,184,-122,-61,139,95,2,18,89,35
-206,-163,43,185,-124,-60,140,96,3,18,90,36
-208,-164,44,186,-126,-60,141,96,4,18,90,36
-210,-164,46,187,-128,-59,140,95,3,18,90,36
-211,-165,46,188,-128,-59,140,95,3,18,91,36
-211,-166,45,189,-128,-60,139,94,3,18,91,35
"
		-211","
		-166","
		45","
		189","
		-128","
		-60","
		140","
		94","
		3","
		18","
		91","
		36"
-209,-165,44,187,-126,-60,139,94,2,18,91,36
-206,-164,42,185,-124,-61,139,94,2,17,90,35
-204,-163,41,184,-122,-61,138,94,1,17,89,35
-203,-163,40,183,-121,-61,139,95,1,17,89,35
-205,-163,42,184,-123,-60,139,95,1,18,89,34
-207,-164,43,186,-125,-60,139,95,2,18,90,35
-209,-164,45,187,-127,-59,139,95,3,19,91,35
-210,-165,45,188,-127,-60,140,95,4,20,92,36
-211,-165,46,188,-128,-59,140,95,4,20,91,36
-210,-165,45,188,-127,-60,140,94,3,19,91,36
-209,-165,44,187,-126,-60,138,93,1,18,89,34
-207,-166,41,187,-124,-62,138,93,1,17,89,34
-205,-165,40,185,-122,-62,137,94,0,17,88,33
-204,-164,40,184,-122,-62,138,95,0,17,87,32
-205,-164,41,185,-123,-61,140,96,2,18,89,34
-207,-164,43,186,-125,-60,139,95,2,18,89,34
-209,-164,45,187,-127,-59,138,95,2,19,89,34
-210,-165,45,188,-127,-60,139,94,2,19,90,35
-210,-166,44,188,-127,-61,139,94,2,20,90,35
-210,-167,43,189,-126,-62,139,94,2,20,91,35
-208,-166,42,187,-125,-62,138,94,2,19,90,34
-206,-165,41,186,-123,-62,137,93,1,18,89,33
-205,-164,41,185,-123,-61,137,94,2,19,88,34
-204,-163,41,184,-122,-61,137,94,1,18,87,33
-205,-163,42,184,-123,-60,138,94,2,18,88,33
-206,-163,43,185,-124,-60,139,95,3,19,89,33
-208,-164,44,186,-126,-60,140,95,4,20,90,34
-210,-164,46,187,-128,-59,140,95,4,20,90,35
-210,-164,46,187,-128,-59,140,95,4,21,91,35
-209,-163,46,186,-127,-58,140,96,5,22,91,36
-208,-162,46,185,-127,-58,139,96,4,20,90,35
-206,-161,45,184,-125,-58,138,96,3,19,90,35
-205,-159,46,182,-125,-56,137,95,4,19,90,35
-203,-157,46,180,-124,-55,138,96,5,20,91,35
-202,-155,47,179,-124,-54,138,96,7,21,92,36
-203,-153,50,178,-126,-51,138,96,7,21,93,36
-204,-152,52,178,-128,-50,138,96,8,22,94,37
-205,-152,53,179,-129,-49,138,97,9,23,96,39
-206,-152,54,179,-130,-49,138,97,9,24,97,39
-205,-151,54,178,-129,-48,137,97,9,24,97,39
-205,-149,56,177,-130,-46,138,97,9,25,98,39
-204,-148,56,176,-130,-46,138,96,9,24,96,38
-203,-149,54,176,-128,-47,138,97,9,23,96,38
-202,-148,54,175,-128,-47,138,97,9,23,96,38
-201,-146,55,174,-128,-45,136,97,9,23,97,39
-202,-146,56,174,-129,-45,135,97,10,24,97,39
-204,-148,56,176,-130,-46,135,97,11,25,98,40
-206,-148,58,177,-132,-45,136,98,12,26,99,41
-205,-147,58,176,-131,-44,135,96,13,26,99,42
-203,-146,57,175,-130,-44,133,96,13,27,100,42
-200,-144,56,172,-128,-44,130,95,13,26,101,42
-197,-142,55,170,-126,-43,129,96,14,26,102,43
-194,-140,54,167,-124,-43,128,95,13,26,101,43
-194,-139,55,167,-124,-42,129,96,14,28,102,44
-195,-137,58,166,-126,-39,128,95,14,28,102,45
-196,-136,60,166,-128,-38,125,92,13,28,103,46
-197,-135,62,166,-129,-36,122,90,12,29,104,47
-197,-136,61,167,-129,-37,122,89,13,30,106,48
-198,-138,60,168,-129,-39,122,89,13,31,107,49
-197,-139,58,168,-127,-40,122,90,13,31,107,49
-195,-140,55,168,-125,-42,121,89,12,30,106,48
-193,-140,53,167,-123,-43,122,89,12,30,106,48
-191,-141,50,166,-120,-45,121,87,8,26,102,46
-191,-142,49,167,-120,-46,123,88,7,25,101,45
-192,-145,47,169,-119,-49,125,89,7,24,100,43
-195,-149,46,172,-120,-51,127,90,7,23,99,42
-198,-152,46,175,-122,-53,127,89,5,21,97,41
-201,-155,46,178,-123,-54,128,88,3,20,97,41
-201,-156,45,179,-123,-55,129,89,3,20,97,41
-201,-157,44,179,-122,-56,130,90,3,20,96,41
-199,-158,41,179,-120,-58,130,90,3,20,96,41
-198,-161,37,180,-117,-62,130,90,2,19,94,38
-197,-164,33,181,-115,-65,130,90,2,18,92,36
-198,-165,33,182,-115,-66,132,92,1,16,90,35
-200,-165,35,183,-117,-65,133,92,0,14,88,33
-203,-167,36,185,-119,-65,134,92,0,14,88,33
-206,-169,37,188,-121,-66,135,91,0,13,87,31
-209,-171,38,190,-123,-66,135,89,-2,10,84,28
-212,-174,38,193,-125,-68,136,88,-4,9,83,27
-213,-176,37,195,-125,-69,136,87,-5,8,82,27
-210,-176,34,193,-122,-71,134,87,-5,7,81,26
-207,-174,33,191,-120,-70,135,88,-4,7,81,26
-205,-173,32,189,-118,-70,135,89,-4,6,80,25
-205,-173,32,189,-118,-70,136,90,-4,6,80,25
-207,-175,32,191,-119,-71,137,91,-3,7,80,26
-209,-176,33,193,-121,-71,137,91,-3,8,81,26
-211,-176,35,194,-123,-70,138,91,-2,9,82,26
-212,-176,36,194,-124,-70,139,90,-1,10,83,26
-212,-177,35,195,-123,-71,138,89,-2,10,82,26
-212,-177,35,195,-123,-71,137,88,-3,10,81,25
-210,-177,33,194,-121,-72,137,89,-3,9,80,25
-208,-177,31,193,-119,-73,136,89,-4,8,79,24
-208,-177,31,193,-119,-73,136,89,-4,6,78,23
-208,-177,31,193,-119,-73,136,89,-5,5,77,23
-208,-178,30,193,-119,-74,136,89,-5,5,78,23
-209,-178,31,194,-120,-73,138,90,-3,7,79,24
-211,-179,32,195,-121,-73,139,90,-2,7,80,24
-213,-179,34,196,-123,-72,139,89,-3,7,79,23
-214,-179,35,197,-124,-72,139,89,-3,8,80,24
-213,-179,34,196,-123,-72,138,88,-4,8,79,23
-211,-178,33,195,-122,-72,137,87,-5,7,77,22
-209,-178,31,194,-120,-73,138,89,-5,6,77,21
-208,-178,30,193,-119,-74,138,89,-6,5,76,20
-207,-178,29,193,-118,-74,138,89,-5,6,76,20
-207,-178,29,193,-118,-74,138,89,-4,6,77,21
-209,-178,31,194,-120,-73,140,89,-3,7,78,22
-212,-179,33,196,-122,-73,139,88,-4,7,78,21
-214,-181,33,198,-123,-74,139,88,-4,8,78,21
-215,-181,34,198,-124,-73,140,89,-3,9,80,22
-214,-180,34,197,-124,-73,140,89,-4,9,80,22
-213,-181,32,197,-122,-74,140,88,-5,8,78,21
-211,-181,30,196,-120,-75,138,87,-7,5,76,19
-209,-180,29,195,-119,-75,138,87,-7,4,75,18
-208,-178,30,193,-119,-74,138,87,-7,3,74,18
-209,-179,30,194,-119,-74,139,88,-5,4,76,19
-211,-179,32,195,-121,-73,140,89,-5,5,77,19
-212,-179,33,196,-122,-73,140,88,-5,6,78,20
-213,-179,34,196,-123,-72,140,87,-5,6,78,20
-213,-179,34,196,-123,-72,140,87,-5,7,78,20
-212,-180,32,196,-122,-74,139,87,-6,7,79,20
-212,-179,33,196,-122,-73,138,87,-6,7,78,20
-211,-179,32,195,-121,-73,139,88,-7,7,78,20
-209,-178,31,194,-120,-73,139,88,-8,6,77,20
-207,-178,29,193,-118,-74,138,87,-8,4,76,18
-208,-178,30,193,-119,-74,138,87,-8,4,75,18
-210,-178,32,194,-121,-73,138,87,-7,5,76,18
-212,-179,33,196,-122,-73,139,88,-6,6,78,19
-215,-180,35,198,-125,-72,141,90,-4,7,78,20
-216,-183,33,200,-124,-75,145,95,0,8,77,18
-214,-188,26,201,-120,-81,150,103,6,9,72,13
-212,-192,20,202,-116,-86,154,110,12,9,67,7
-212,-195,17,204,-114,-89,158,118,20,12,63,2
-212,-194,18,203,-115,-88,162,122,27,16,62,0
-213,-191,22,202,-117,-84,164,125,33,21,64,1
-215,-187,28,201,-121,-79,166,128,39,29,69,4
-216,-183,33,200,-124,-75,167,130,44,36,75,7
-214,-179,35,197,-124,-72,166,131,49,44,83,12
-211,-175,36,193,-123,-69,165,132,54,54,92,17
-208,-172,36,190,-122,-68,164,134,62,70,107,26
-204,-165,39,185,-121,-63,163,139,78,95,128,38
-196,-153,43,175,-119,-55,157,140,96,129,156,54
-184,-138,46,161,-115,-46,147,138,116,174,192,77
-169,-121,48,145,-108,-36,134,133,135,224,236,103
-155,-100,55,128,-105,-22,120,125,146,272,286,138
-146,-76,70,111,-108,-3,103,106,136,304,330,171
-145,-55,90,100,-117,18,86,76,99,315,364,198
-148,-35,113,92,-130,39,69,42,49,318,394,223
-148,-11,137,80,-142,63,49,4,-1,322,426,249
-149,11,160,69,-154,86,30,-26,-39,330,456,274
-153,17,170,68,-161,94,26,-37,-65,332,465,282
-165,6,171,80,-168,89,39,-30,-79,314,440,268
-181,-9,172,95,-176,82,55,-20,-96,260,379,237
-198,-24,174,111,-186,75,65,-17,-125,175,301,201
-214,-39,175,127,-194,68,70,-21,-166,73,217,162
-229,-58,171,144,-200,57,77,-26,-207,-27,139,123
-241,-82,159,162,-200,39,87,-24,-239,-109,75,87
-248,-111,137,180,-192,13,99,-17,-259,-178,24,55
-253,-143,110,198,-181,-16,117,-2,-261,-224,-10,31
-255,-171,84,213,-169,-43,135,20,-242,-229,-27,10
-255,-190,65,223,-160,-62,151,43,-212,-200,-27,-6
-255,-201,54,228,-154,-73,166,58,-191,-173,-26,-16
-259,-211,48,235,-153,-81,182,65,-185,-167,-30,-27
-262,-221,41,242,-151,-90,192,69,-182,-164,-33,-35
-261,-227,34,244,-147,-96,187,66,-180,-161,-34,-42
-260,-231,29,246,-144,-101,178,66,-175,-155,-32,-44
-258,-233,25,246,-141,-104,174,73,-164,-147,-29,-44
-256,-231,25,244,-140,-103,174,84,-145,-134,-22,-42
-253,-226,27,240,-140,-99,174,94,-125,-119,-13,-37
-247,-221,26,234,-136,-97,177,105,-102,-99,0,-30
-239,-216,23,228,-131,-96,178,117,-77,-78,13,-23
-230,-211,19,221,-124,-96,176,126,-55,-58,26,-14
-223,-205,18,214,-120,-93,171,127,-43,-44,35,-10
-219,-199,20,209,-119,-89,167,125,-33,-33,42,-5
-218,-194,24,206,-121,-85,161,116,-26,-25,50,0
-217,-189,28,203,-122,-80,153,105,-23,-19,54,4
-216,-185,31,201,-123,-77,147,99,-19,-15,57,6
-218,-184,34,201,-126,-75,147,100,-12,-12,60,8
-220,-183,37,202,-128,-73,147,100,-7,-9,63,10
-220,-182,38,201,-129,-72,146,100,-2,-4,66,11
-218,-180,38,199,-128,-71,144,99,1,0,67,11
-215,-178,37,197,-126,-70,142,100,4,2,69,12
-213,-177,36,195,-124,-70,141,100,4,4,71,12
-211,-176,35,194,-123,-70,141,100,5,5,71,13
-211,-175,36,193,-123,-69,140,100,5,5,71,13
-211,-174,37,193,-124,-68,141,102,7,5,73,14
-211,-174,37,193,-124,-68,142,103,9,5,74,16
-213,-174,39,194,-126,-67,143,104,12,7,75,16
-215,-175,40,195,-127,-67,143,104,14,8,75,16
-215,-177,38,196,-126,-69,142,102,15,9,75,16
-214,-177,37,196,-125,-70,142,100,15,10,76,16
-212,-176,36,194,-124,-70,140,99,14,11,76,16
-210,-175,35,193,-122,-70,139,99,14,11,76,16
-208,-174,34,191,-121,-70,138,100,13,11,76,16
-207,-173,34,190,-120,-69,137,100,13,11,76,15
-208,-172,36,190,-122,-68,138,101,14,10,76,16
-210,-172,38,191,-124,-67,139,102,17,11,77,17
-211,-173,38,192,-124,-67,140,103,19,11,78,18
-213,-174,39,194,-126,-67,140,103,21,12,79,18
-213,-175,38,194,-125,-68,140,102,21,13,78,17
-212,-176,36,194,-124,-70,140,101,22,14,78,17
-210,-175,35,193,-122,-70,139,100,21,14,77,16
-207,-174,33,191,-120,-70,138,99,20,15,78,16
-205,-173,32,189,-118,-70,137,99,19,15,78,15
-205,-172,33,189,-119,-69,137,99,18,14,77,15
-206,-171,35,189,-120,-68,138,101,19,14,77,16
-206,-171,35,189,-120,-68,138,102,21,13,77,17
-209,-171,38,190,-123,-66,139,104,23,14,78,17
-211,-172,39,192,-125,-66,140,104,24,15,78,17
-212,-173,39,193,-125,-67,140,104,25,16,79,17
-211,-173,38,192,-124,-67,139,103,26,17,79,17
-208,-173,35,191,-121,-69,137,101,25,17,78,16
-206,-172,34,189,-120,-69,136,101,24,17,77,15
-205,-172,33,189,-119,-69,135,101,23,17,77,15
-205,-171,34,188,-119,-68,136,102,24,17,78,16
-205,-170,35,188,-120,-67,137,104,25,17,78,17
-206,-170,36,188,-121,-67,137,105,26,17,79,18
-208,-171,37,190,-122,-67,139,106,28,18,79,17
-210,-172,38,191,-124,-67,139,106,29,19,80,17
-211,-172,39,192,-125,-66,139,105,29,20,79,17
-210,-173,37,192,-123,-68,138,104,29,21,79,16
-208,-173,35,191,-121,-69,138,103,29,23,79,16
-206,-172,34,189,-120,-69,137,103,29,23,79,15
-204,-171,33,188,-118,-69,137,103,28,23,78,15
-204,-171,33,188,-118,-69,137,105,29,23,79,15
-205,-171,34,188,-119,-68,138,107,30,22,80,15
-206,-170,36,188,-121,-67,139,108,31,22,80,16
-208,-169,39,189,-123,-65,140,109,33,22,81,16
-209,-170,39,190,-124,-65,140,109,34,24,82,17
-210,-171,39,191,-124,-66,141,109,36,26,82,17
-209,-172,37,191,-123,-67,140,108,36,27,82,17
-208,-172,36,190,-122,-68,139,107,36,27,81,16
-205,-172,33,189,-119,-69,137,106,35,27,81,15
-203,-171,32,187,-117,-69,136,106,34,26,80,14
-202,-170,32,186,-117,-69,137,108,35,26,80,15
-203,-169,34,186,-118,-67,139,110,36,27,81,17
-204,-168,36,186,-120,-66,140,112,38,29,82,17
-206,-169,37,188,-121,-66,140,113,41,30,82,18
-207,-170,37,189,-122,-66,139,112,42,30,82,17
-208,-171,37,190,-122,-67,140,112,43,31,83,18
-207,-172,35,190,-121,-68,139,111,44,32,83,17
-206,-171,35,189,-120,-68,138,110,43,33,82,16
-204,-170,34,187,-119,-68,137,110,43,34,82,16
-202,-168,34,185,-118,-67,137,111,44,34,82,16
-201,-167,34,184,-117,-66,137,112,44,34,82,16
-200,-166,34,183,-117,-66,138,114,46,35,83,17
-202,-166,36,184,-119,-65,139,116,47,36,83,17
-204,-167,37,186,-120,-65,140,117,50,37,84,18
-206,-168,38,187,-122,-65,140,117,52,38,85,18
-206,-169,37,188,-121,-66,141,117,53,40,86,18
-205,-169,36,187,-120,-66,139,115,53,40,85,17
-204,-169,35,187,-119,-67,139,115,55,42,85,18
-202,-168,34,185,-118,-67,138,116,56,44,86,18
-199,-166,33,183,-116,-66,137,116,56,44,86,18
-198,-165,33,182,-115,-66,138,118,57,45,87,19
-197,-164,33,181,-115,-65,138,120,58,45,87,19
-199,-164,35,182,-117,-64,139,122,62,47,89,21
-200,-165,35,183,-117,-65,140,123,64,48,90,21
-201,-166,35,184,-118,-65,140,123,67,50,91,21
-202,-166,36,184,-119,-65,140,122,69,52,91,21
-202,-167,35,185,-118,-66,140,124,72,55,92,22
-200,-166,34,183,-117,-66,139,124,73,57,92,21
-198,-165,33,182,-115,-66,138,124,73,59,93,22
-197,-163,34,180,-115,-64,137,125,75,60,95,23
-196,-162,34,179,-115,-64,137,126,76,60,95,24
-195,-161,34,178,-114,-63,137,128,78,60,95,24
-195,-160,35,178,-115,-62,138,130,82,63,97,26
-194,-159,35,177,-114,-62,138,132,84,65,98,26
-195,-159,36,177,-115,-61,139,133,87,68,100,27
-196,-159,37,178,-116,-61,138,132,89,69,101,27
-195,-159,36,177,-115,-61,137,132,92,72,102,28
-193,-158,35,176,-114,-61,136,133,94,75,103,28
-190,-158,32,174,-111,-63,135,134,95,78,104,29
-187,-157,30,172,-108,-63,134,134,96,79,104,28
-185,-155,30,170,-107,-62,134,136,99,82,106,30
-185,-154,31,170,-108,-61,135,139,103,85,109,32
-186,-154,32,170,-109,-61,136,140,106,89,111,34
-187,-153,34,170,-110,-59,135,141,108,91,113,35
-188,-153,35,171,-111,-59,134,141,110,94,113,36
-187,-153,34,170,-110,-59,133,141,113,97,115,37
-185,-154,31,170,-108,-61,133,142,116,102,117,38
-183,-152,31,168,-107,-60,131,142,117,105,118,38
-180,-150,30,165,-105,-60,130,143,118,109,121,40
-177,-149,28,163,-102,-60,128,143,119,111,122,41
-175,-147,28,161,-101,-59,128,144,120,113,124,42
-175,-145,30,160,-102,-57,128,145,123,115,126,44
-175,-143,32,159,-103,-55,129,147,126,118,129,47
-176,-143,33,160,-104,-55,128,147,128,121,131,48
-177,-144,33,161,-105,-55,128,148,131,125,134,50
-176,-145,31,161,-103,-57,127,147,133,128,136,52
-174,-145,29,160,-101,-58,126,146,133,130,137,52
-172,-144,28,158,-100,-58,124,146,133,132,138,53
-169,-142,27,156,-98,-57,122,145,132,135,139,53
-166,-140,26,153,-96,-57,121,146,132,138,141,54
-165,-139,26,152,-95,-56,121,146,132,138,142,56
-165,-138,27,152,-96,-55,121,146,134,140,144,58
-166,-137,29,152,-97,-54,121,147,135,142,146,60
-167,-137,30,152,-98,-53,120,146,136,143,147,62
-168,-137,31,153,-99,-53,119,145,136,144,149,63
-168,-137,31,153,-99,-53,118,144,137,146,150,63
"
		-166","
		-136","
		30","
		151","
		-98","
		-53","
		117","
		142","
		136","
		147","
		150","
		63"
-164,-136,28,150,-96,-54,116,142,135,149,152,64
-161,-135,26,148,-93,-54,113,139,131,148,151,63
-158,-134,24,146,-91,-55,111,138,129,148,152,63
-157,-133,24,145,-90,-54,111,137,127,147,152,64
-159,-132,27,146,-93,-52,112,138,127,148,155,67
-160,-131,29,146,-94,-51,112,137,125,147,155,68
-161,-132,29,147,-95,-51,111,135,122,146,155,68
-164,-132,32,148,-98,-50,111,133,119,144,155,68
-166,-133,33,150,-99,-50,110,130,115,142,155,68
-166,-133,33,150,-99,-50,109,126,110,138,153,67
-165,-134,31,150,-98,-51,108,124,105,135,152,67
-164,-134,30,149,-97,-52,108,121,100,131,150,66
-163,-133,30,148,-96,-51,107,118,95,125,147,64
-164,-133,31,149,-97,-51,108,118,90,122,145,64
-166,-133,33,150,-99,-50,108,116,84,116,143,63
-169,-134,35,152,-102,-49,110,115,81,111,141,63
-172,-136,36,154,-104,-50,110,113,76,105,138,61
-175,-138,37,157,-106,-50,111,111,73,101,135,60
-178,-139,39,159,-108,-50,111,108,67,95,132,57
-179,-140,39,160,-109,-50,111,106,62,90,129,54
-180,-142,38,161,-109,-52,112,105,57,84,126,52
-180,-142,38,161,-109,-52,112,103,52,78,122,49
-180,-143,37,162,-108,-53,113,102,48,72,118,47
-180,-144,36,162,-108,-54,115,103,44,67,116,46
-182,-145,37,164,-109,-54,117,103,40,63,114,45
-185,-146,39,166,-112,-53,118,102,37,57,111,43
-189,-148,41,169,-115,-53,120,101,35,53,110,41
-191,-149,42,170,-116,-53,121,100,32,49,107,39
-193,-151,42,172,-117,-54,122,99,29,47,105,38
-194,-152,42,173,-118,-55,122,97,26,43,102,36
-194,-153,41,174,-117,-56,121,95,23,38,99,33
-194,-154,40,174,-117,-57,123,95,21,36,98,32
-194,-154,40,174,-117,-57,124,95,19,33,96,31
-194,-154,40,174,-117,-57,125,95,17,30,94,31
-195,-154,41,175,-118,-56,126,95,14,27,93,30
-197,-156,41,177,-119,-57,127,96,13,25,92,29
-200,-158,42,179,-121,-58,129,97,13,24,91,29
-202,-159,43,181,-122,-58,128,95,12,22,90,28
-203,-161,42,182,-122,-59,129,94,11,22,89,26
-202,-161,41,182,-121,-60,129,93,10,20,88,25
-201,-161,40,181,-120,-60,128,92,7,18,86,23
-200,-161,39,181,-119,-61,128,92,6,17,85,22
-199,-161,38,180,-118,-61,128,93,4,16,84,21
-199,-161,38,180,-118,-61,129,93,3,15,83,22
-199,-161,38,180,-118,-61,129,94,2,13,82,22
-200,-162,38,181,-119,-62,130,94,3,12,82,22
-201,-162,39,182,-120,-61,131,95,4,12,82,22
-203,-163,40,183,-121,-61,132,94,4,12,82,22
-205,-164,41,185,-123,-61,132,93,4,13,82,22
-206,-164,42,185,-124,-61,132,92,3,13,82,21
-204,-164,40,184,-122,-62,130,91,1,11,81,19
-202,-164,38,183,-120,-63,130,91,0,11,81,19
-200,-164,36,182,-118,-64,130,91,-1,10,79,18
-199,-163,36,181,-117,-63,130,91,-1,9,77,18
-199,-163,36,181,-117,-63,131,92,-1,9,78,18
-201,-163,38,182,-119,-62,132,94,0,9,80,19
-204,-164,40,184,-122,-62,133,95,1,9,80,19
-205,-165,40,185,-122,-62,133,94,1,9,80,19
-206,-166,40,186,-123,-63,133,93,1,9,80,19
-205,-166,39,186,-122,-63,132,92,0,8,79,18
-204,-166,38,185,-121,-64,132,92,0,9,79,18
-201,-164,37,183,-119,-63,131,92,-1,8,77,16
-199,-163,36,181,-117,-63,131,92,-2,8,77,16
-198,-162,36,180,-117,-63,132,93,-1,9,78,17
-200,-162,38,181,-119,-62,132,94,-1,8,78,17
-202,-163,39,183,-120,-62,133,95,0,9,78,18
-204,-163,41,184,-122,-61,134,96,2,9,80,19
-205,-164,41,185,-123,-61,135,96,3,10,81,20
-206,-164,42,185,-124,-61,133,95,2,9,80,20
-205,-164,41,185,-123,-61,132,94,2,9,79,19
-204,-164,40,184,-122,-62,131,92,1,8,78,18
-201,-164,37,183,-119,-63,130,92,0,8,77,18
-199,-163,36,181,-117,-63,131,93,-1,8,77,18
-198,-162,36,180,-117,-63,132,95,-1,8,78,19
-199,-162,37,181,-118,-62,132,96,-1,8,78,19
-201,-162,39,182,-120,-61,133,97,0,9,79,20
-202,-162,40,182,-121,-61,132,96,1,9,79,20
-204,-163,41,184,-122,-61,133,96,3,10,80,20
-205,-164,41,185,-123,-61,133,97,4,10,81,21
-205,-164,41,185,-123,-61,133,96,3,10,80,20
-203,-164,39,184,-121,-62,132,95,2,9,80,19
-202,-163,39,183,-120,-62,131,94,1,9,79,19
-200,-163,37,182,-118,-63,132,95,2,10,80,20
-199,-162,37,181,-118,-62,132,96,1,9,80,20
-201,-161,40,181,-120,-60,131,96,1,9,80,21
-202,-162,40,182,-121,-61,131,97,3,10,81,22
-204,-163,41,184,-122,-61,133,98,5,11,82,22
-205,-163,42,184,-123,-60,133,98,6,12,82,22
-206,-163,43,185,-124,-60,133,98,6,13,83,23
-205,-164,41,185,-123,-61,132,96,5,12,83,22
-203,-164,39,184,-121,-62,130,94,4,11,82,20
-201,-164,37,183,-119,-63,129,94,3,10,81,20
-199,-163,36,181,-117,-63,129,95,2,10,81,20
-199,-161,38,180,-118,-61,131,96,3,11,82,21
-199,-160,39,180,-119,-60,130,96,3,11,82,22
-200,-159,41,180,-120,-59,131,97,3,12,83,23
-201,-160,41,181,-121,-59,131,97,4,13,84,23
-203,-161,42,182,-122,-59,131,97,5,13,84,23
-204,-162,42,183,-123,-60,131,97,6,13,85,25
-204,-162,42,183,-123,-60,131,96,5,13,85,25
-202,-162,40,182,-121,-61,130,95,4,13,85,23
-200,-162,38,181,-119,-62,129,94,2,13,84,23
-198,-161,37,180,-117,-62,128,93,1,12,83,23
-196,-160,36,178,-116,-62,128,93,1,11,82,22
-198,-159,39,179,-118,-60,129,95,2,12,84,24
-199,-159,40,179,-119,-59,129,96,2,12,84,24
-201,-160,41,181,-121,-59,129,96,4,13,85,25
-203,-161,42,182,-122,-59,129,96,5,14,85,25
-204,-161,43,183,-123,-59,128,94,4,14,85,24
-203,-162,41,183,-122,-60,128,94,3,14,84,24
-201,-161,40,181,-120,-60,127,92,2,13,84,23
-199,-161,38,180,-118,-61,128,93,2,14,85,24
-197,-160,37,179,-117,-61,127,92,1,13,84,23
-197,-160,37,179,-117,-61,128,93,1,13,84,23
-197,-159,38,178,-117,-60,128,93,0,12,83,23
-198,-159,39,179,-118,-60,129,94,1,13,85,24
-200,-160,40,180,-120,-60,129,95,2,13,85,24
-201,-161,40,181,-120,-60,129,94,2,11,84,23
-202,-162,40,182,-121,-61,129,94,3,11,84,23
-202,-162,40,182,-121,-61,129,92,2,11,84,22
-200,-162,38,181,-119,-62,127,90,0,9,83,21
-198,-162,36,180,-117,-63,127,91,0,10,83,21
-196,-161,35,179,-115,-63,127,91,-1,9,82,20
-196,-161,35,179,-115,-63,128,92,-2,9,82,20
-196,-160,36,178,-116,-62,127,92,-4,8,81,19
-198,-161,37,180,-117,-62,127,92,-3,7,81,20
-200,-162,38,181,-119,-62,127,92,-2,7,82,21
-201,-162,39,182,-120,-61,128,92,-1,8,82,21
-202,-163,39,183,-120,-62,127,91,-1,7,82,21
-201,-163,38,182,-119,-62,127,91,-2,7,82,20
-200,-162,38,181,-119,-62,126,89,-4,6,81,20
-198,-162,36,180,-117,-63,127,90,-5,7,81,20
-195,-162,33,179,-114,-64,126,89,-6,6,79,19
-195,-162,33,179,-114,-64,126,89,-7,5,79,19
-197,-161,36,179,-116,-62,126,89,-7,4,79,19
-198,-161,37,180,-117,-62,126,89,-7,4,79,18
-200,-162,38,181,-119,-62,126,90,-6,4,79,19
-201,-163,38,182,-119,-62,127,90,-5,4,80,20
-202,-164,38,183,-120,-63,128,90,-5,4,80,20
-202,-164,38,183,-120,-63,128,89,-6,4,80,19
-201,-164,37,183,-119,-63,126,87,-8,2,78,18
-200,-164,36,182,-118,-64,126,87,-9,2,77,17
-198,-164,34,181,-116,-65,125,87,-10,2,76,17
-197,-163,34,180,-115,-64,126,88,-10,2,76,17
-197,-162,35,180,-116,-63,125,88,-11,2,76,16
-198,-162,36,180,-117,-63,127,89,-10,3,77,17
-200,-163,37,182,-118,-63,127,89,-8,3,77,18
-201,-163,38,182,-119,-62,127,87,-8,3,77,18
-201,-164,37,183,-119,-63,127,87,-7,3,78,19
-201,-164,37,183,-119,-63,127,87,-7,3,77,19
-201,-164,37,183,-119,-63,127,86,-7,1,77,19
-199,-164,35,182,-117,-64,127,86,-9,0,77,19
-198,-164,34,181,-116,-65,126,85,-10,0,76,18
-197,-163,34,180,-115,-64,126,86,-10,0,75,18
-197,-163,34,180,-115,-64,126,87,-10,-1,75,18
-198,-163,35,181,-116,-64,126,87,-10,-1,75,18
-199,-163,36,181,-117,-63,126,87,-10,-2,75,19
-201,-165,36,183,-118,-64,128,87,-9,0,76,20
-202,-166,36,184,-119,-65,127,87,-9,-1,76,19
-203,-166,37,185,-120,-64,128,87,-9,0,76,20
-201,-166,35,184,-118,-65,126,86,-10,-1,75,19
-199,-166,33,183,-116,-66,125,85,-10,-2,74,18
-197,-165,32,181,-114,-66,125,85,-11,-2,74,17
-196,-164,32,180,-114,-66,126,87,-10,-1,75,18
-196,-164,32,180,-114,-66,127,87,-9,-1,75,18
-198,-164,34,181,-116,-65,127,87,-9,-2,75,17
-201,-165,36,183,-118,-64,129,88,-8,-2,76,19
-202,-166,36,184,-119,-65,128,87,-8,-2,76,18
-203,-166,37,185,-120,-64,129,87,-7,-1,76,19
-203,-166,37,185,-120,-64,128,86,-8,-1,76,19
-202,-166,36,184,-119,-65,127,85,-9,-2,75,18
-200,-166,34,183,-117,-66,127,86,-9,-2,74,18
-198,-165,33,182,-115,-66,127,86,-11,-2,74,17
-195,-165,30,180,-112,-67,126,85,-12,-3,73,16
-196,-165,31,181,-113,-67,126,86,-12,-3,73,17
-198,-165,33,182,-115,-66,127,87,-11,-3,74,18
-199,-165,34,182,-116,-65,128,86,-11,-4,74,18
-201,-166,35,184,-118,-65,129,87,-10,-3,75,18
-202,-167,35,185,-118,-66,129,87,-9,-2,76,19
-202,-167,35,185,-118,-66,128,86,-10,-2,76,18
-200,-167,33,184,-116,-67,126,85,-11,-3,74,18
-198,-166,32,182,-115,-67,126,85,-12,-4,74,17
-197,-165,32,181,-114,-66,126,85,-13,-5,73,16
-197,-165,32,181,-114,-66,126,86,-13,-6,73,16
-197,-165,32,181,-114,-66,126,86,-12,-6,73,16
-197,-165,32,181,-114,-66,126,87,-12,-4,73,17
-199,-165,34,182,-116,-65,127,87,-10,-3,75,18
-202,-166,36,184,-119,-65,128,87,-10,-3,75,18
-203,-167,36,185,-119,-65,128,86,-10,-2,75,19
-202,-168,34,185,-118,-67,128,85,-10,-2,75,19
-202,-167,35,185,-118,-66,128,85,-10,-2,75,19
-200,-167,33,184,-116,-67,127,85,-11,-3,74,19
-197,-166,31,182,-114,-67,127,86,-12,-3,73,18
-195,-165,30,180,-112,-67,126,86,-13,-5,72,17
-197,-165,32,181,-114,-66,126,86,-14,-6,73,17
-199,-165,34,182,-116,-65,127,87,-13,-6,74,18
-200,-165,35,183,-117,-65,127,86,-13,-6,74,18
-202,-166,36,184,-119,-65,128,86,-11,-6,74,19
-203,-166,37,185,-120,-64,129,86,-10,-5,75,19
-202,-166,36,184,-119,-65,127,85,-11,-6,74,18
-201,-167,34,184,-117,-66,127,84,-12,-6,74,18
-199,-167,32,183,-115,-67,127,85,-12,-5,74,18
-197,-165,32,181,-114,-66,125,84,-15,-7,73,16
-195,-164,31,180,-113,-66,124,84,-16,-8,72,15
-196,-163,33,180,-114,-65,124,84,-15,-8,72,15
-197,-163,34,180,-115,-64,126,85,-14,-6,73,16
-199,-164,35,182,-117,-64,127,85,-12,-5,74,17
-201,-165,36,183,-118,-64,128,85,-12,-5,75,18
-202,-166,36,184,-119,-65,127,84,-13,-5,74,18
-202,-166,36,184,-119,-65,127,84,-13,-5,74,17
-200,-166,34,183,-117,-66,127,84,-13,-5,74,17
-197,-165,32,181,-114,-66,125,83,-15,-7,72,16
-195,-164,31,180,-113,-66,124,83,-16,-7,71,15
-195,-164,31,180,-113,-66,125,84,-16,-7,71,16
-196,-164,32,180,-114,-66,126,85,-15,-6,72,16
-198,-164,34,181,-116,-65,126,86,-16,-7,72,16
-199,-165,34,182,-116,-65,127,86,-14,-6,73,17
-200,-166,34,183,-117,-66,127,86,-13,-5,74,18
-201,-166,35,184,-118,-65,127,85,-14,-5,73,18
-201,-167,34,184,-117,-66,126,84,-15,-5,73,17
-200,-167,33,184,-116,-67,126,84,-15,-5,73,16
-199,-167,32,183,-115,-67,126,84,-15,-6,72,16
-197,-166,31,182,-114,-67,125,84,-16,-8,71,15
-196,-165,31,181,-113,-67,125,85,-17,-9,70,15
-196,-164,32,180,-114,-66,125,86,-17,-8,71,16
-198,-164,34,181,-116,-65,125,85,-16,-8,72,17
-200,-165,35,183,-117,-65,126,85,-15,-7,73,18
-201,-166,35,184,-118,-65,126,85,-14,-6,73,18
-202,-167,35,185,-118,-66,127,85,-13,-6,73,18
-201,-168,33,185,-117,-67,126,84,-14,-5,73,17
-200,-168,32,184,-116,-68,124,83,-15,-6,71,16
-199,-167,32,183,-115,-67,125,84,-15,-6,71,15
-198,-166,32,182,-115,-67,125,84,-16,-7,71,15
-196,-165,31,181,-113,-67,124,84,-16,-7,71,15
-195,-164,31,180,-113,-66,124,84,-17,-8,70,14
-197,-164,33,181,-115,-65,125,85,-16,-8,71,15
-200,-165,35,183,-117,-65,126,85,-15,-7,72,15
-202,-167,35,185,-118,-66,128,85,-13,-6,73,17
-202,-168,34,185,-118,-67,127,84,-14,-5,72,17
-201,-167,34,184,-117,-66,126,83,-15,-6,71,16
-199,-166,33,183,-116,-66,125,82,-16,-7,71,15
-197,-166,31,182,-114,-67,125,83,-16,-7,71,15
-196,-165,31,181,-113,-67,124,83,-17,-7,70,15
-194,-164,30,179,-112,-67,123,84,-17,-8,70,14
-196,-164,32,180,-114,-66,125,86,-16,-7,71,15
-198,-165,33,182,-115,-66,126,86,-15,-7,72,16
-200,-166,34,183,-117,-66,127,86,-14,-7,72,17
-201,-166,35,184,-118,-65,126,84,-14,-7,72,16
-202,-167,35,185,-118,-66,127,84,-14,-6,73,17
-202,-167,35,185,-118,-66,126,84,-14,-5,73,16
-200,-167,33,184,-116,-67,125,83,-14,-6,72,15
-197,-166,31,182,-114,-67,125,83,-15,-6,71,14
-195,-165,30,180,-112,-67,124,83,-15,-7,70,14
-194,-165,29,180,-111,-68,124,83,-17,-9,69,13
-195,-165,30,180,-112,-67,124,84,-16,-8,70,14
-198,-165,33,182,-115,-66,125,84,-15,-8,70,15
-201,-165,36,183,-118,-64,126,85,-13,-7,72,16
-201,-165,36,183,-118,-64,126,85,-13,-7,72,15
-201,-166,35,184,-118,-65,126,85,-14,-6,73,15
-200,-166,34,183,-117,-66,125,84,-14,-6,73,15
-199,-166,33,183,-116,-66,124,82,-15,-7,71,14
-197,-166,31,182,-114,-67,124,82,-15,-7,71,13
-196,-165,31,181,-113,-67,124,82,-16,-8,70,13
-194,-164,30,179,-112,-67,123,82,-17,-8,69,12
-195,-164,31,180,-113,-66,123,83,-17,-8,69,12
-197,-164,33,181,-115,-65,124,85,-16,-8,70,13
-199,-164,35,182,-117,-64,125,85,-14,-7,71,13
-200,-165,35,183,-117,-65,125,84,-15,-7,71,13
-200,-166,34,183,-117,-66,126,84,-14,-6,72,13
-200,-166,34,183,-117,-66,125,83,-15,-7,72,13
-199,-166,33,183,-116,-66,123,82,-16,-8,71,12
-197,-166,31,182,-114,-67,123,82,-16,-8,70,11
-196,-165,31,181,-113,-67,123,82,-17,-9,70,11
-195,-165,30,180,-112,-67,124,83,-16,-9,70,11
-196,-165,31,181,-113,-67,124,84,-16,-9,70,11
-198,-165,33,182,-115,-66,125,85,-15,-8,70,12
-200,-166,34,183,-117,-66,126,85,-14,-7,71,13
-202,-166,36,184,-119,-65,126,84,-15,-7,71,13
-204,-167,37,186,-120,-65,127,84,-14,-5,72,13
-203,-166,37,185,-120,-64,127,85,-14,-5,73,14
-200,-165,35,183,-117,-65,125,83,-15,-6,71,12
-197,-164,33,181,-115,-65,125,83,-15,-6,71,12
-195,-164,31,180,-113,-66,124,83,-16,-6,71,12
-194,-163,31,179,-112,-66,125,85,-15,-6,71,12
-195,-161,34,178,-114,-63,126,86,-15,-6,71,12
-196,-161,35,179,-115,-63,127,88,-13,-4,73,14
-198,-161,37,180,-117,-62,127,87,-12,-4,73,15
-199,-160,39,180,-119,-60,126,87,-11,-4,74,15
-199,-158,41,179,-120,-58,126,87,-10,-3,76,16
-198,-156,42,177,-120,-57,126,87,-8,-2,77,17
-196,-154,42,175,-119,-56,126,87,-8,-2,77,17
-194,-153,41,174,-117,-56,125,87,-9,-2,76,16
-193,-152,41,173,-117,-55,126,88,-8,-2,76,16
-193,-151,42,172,-117,-54,126,89,-8,-3,76,16
-193,-150,43,172,-118,-53,127,90,-7,-2,77,17
-195,-148,47,172,-121,-50,127,90,-6,-1,78,18
-196,-147,49,172,-122,-49,127,89,-5,-1,79,19
-197,-148,49,173,-123,-49,127,89,-4,0,80,20
-198,-150,48,174,-123,-51,127,90,-3,1,81,20
"
		-197","
		-150","
		47","
		174","
		-122","
		-51","
		125","
		89","
		-4","
		1","
		79","
		19"
-195,-150,45,173,-120,-52,125,90,-3,2,80,19
-193,-148,45,171,-119,-51,124,89,-5,1,79,18
-190,-146,44,168,-117,-51,124,90,-4,2,80,20
-187,-143,44,165,-115,-49,123,91,-3,3,81,21
-186,-140,46,163,-116,-47,121,91,-2,4,82,22
-186,-138,48,162,-117,-45,122,91,1,8,85,25
-186,-137,49,162,-117,-44,121,90,2,8,86,26
-187,-136,51,162,-119,-42,121,90,2,8,87,27
-187,-136,51,162,-119,-42,121,88,2,9,88,28
-187,-136,51,162,-119,-42,119,86,2,9,88,28
-187,-137,50,162,-118,-43,115,84,0,10,88,28
-186,-137,49,162,-117,-44,110,80,-4,8,87,27
-184,-137,47,161,-115,-45,110,80,-3,8,87,28
-182,-136,46,159,-114,-45,110,80,-3,9,87,28
-182,-136,46,159,-114,-45,110,81,-3,9,88,29
-183,-138,45,161,-114,-46,111,81,-3,9,89,30
-185,-140,45,163,-115,-47,112,81,-3,8,89,29
-186,-142,44,164,-115,-49,113,80,-4,7,88,29
-187,-144,43,166,-115,-50,114,80,-6,6,87,28
-187,-147,40,167,-113,-53,114,80,-8,5,85,27
-186,-150,36,168,-111,-57,115,80,-10,3,83,25
-186,-152,34,169,-110,-59,115,79,-14,0,80,23
-185,-153,32,169,-108,-60,116,79,-15,-2,79,21
-186,-155,31,171,-108,-62,118,80,-15,-2,78,21
-187,-157,30,172,-108,-63,119,81,-15,-3,77,20
-189,-160,29,175,-109,-65,121,82,-14,-3,77,20
-191,-161,30,176,-110,-65,121,82,-14,-4,77,19
-193,-163,30,178,-111,-66,122,81,-14,-5,76,18
-194,-164,30,179,-112,-67,122,80,-16,-6,75,17
-194,-166,28,180,-111,-69,122,80,-17,-7,73,16
-194,-167,27,181,-110,-70,121,78,-20,-10,70,13
-194,-169,25,182,-109,-72,122,78,-22,-12,68,10
-195,-170,25,183,-110,-72,122,77,-24,-14,65,7
-196,-170,26,183,-111,-72,123,78,-23,-14,65,7
-197,-170,27,184,-112,-71,123,79,-24,-15,65,8
-197,-170,27,184,-112,-71,123,80,-24,-15,65,8
-199,-170,29,185,-114,-70,124,81,-23,-14,65,8
-200,-172,28,186,-114,-72,125,80,-22,-13,65,8
-201,-173,28,187,-114,-72,124,79,-22,-12,65,8
-200,-173,27,187,-113,-73,124,78,-22,-11,66,9
-199,-173,26,186,-112,-73,124,78,-22,-12,66,8
-198,-173,25,186,-111,-74,123,78,-23,-13,65,6
-197,-173,24,185,-110,-74,124,78,-23,-14,64,7
-195,-173,22,184,-108,-75,124,78,-24,-16,63,6
-195,-172,23,184,-109,-74,124,78,-24,-16,63,6
-197,-172,25,185,-111,-73,125,79,-24,-15,64,6
-199,-173,26,186,-112,-73,125,79,-24,-14,65,7
-201,-174,27,188,-114,-73,126,79,-23,-14,65,7
-202,-175,27,189,-114,-74,125,78,-24,-14,64,6
-201,-176,25,189,-113,-75,125,78,-24,-14,64,6
-200,-176,24,188,-112,-76,125,78,-24,-14,64,5
-198,-175,23,187,-110,-76,124,77,-25,-14,62,5
-197,-175,22,186,-109,-76,125,78,-25,-14,62,5
-196,-174,22,185,-109,-76,125,78,-26,-15,62,4
-197,-173,24,185,-110,-74,126,79,-26,-15,62,5
-199,-173,26,186,-112,-73,127,80,-25,-14,63,6
-201,-174,27,188,-114,-73,128,80,-25,-13,63,7
-203,-174,29,189,-116,-72,127,79,-25,-14,63,6
-204,-175,29,190,-116,-73,128,79,-25,-13,64,6
-204,-176,28,190,-116,-74,127,79,-25,-14,63,5
-203,-176,27,190,-115,-74,126,78,-26,-15,63,4
-201,-176,25,189,-113,-75,125,77,-27,-16,62,4
-199,-175,24,187,-111,-75,125,77,-27,-16,62,4
-197,-174,23,186,-110,-75,125,78,-27,-16,61,3
-197,-173,24,185,-110,-74,126,78,-27,-16,62,3
-199,-173,26,186,-112,-73,127,79,-27,-15,63,5
-201,-173,28,187,-114,-72,127,79,-27,-15,63,4
-202,-174,28,188,-115,-73,127,79,-26,-15,63,4
-203,-175,28,189,-115,-73,127,79,-25,-14,64,5
-203,-175,28,189,-115,-73,127,79,-25,-13,65,6
-201,-175,26,188,-113,-74,127,78,-26,-14,64,4
-199,-175,24,187,-111,-75,126,77,-27,-15,63,3
-198,-174,24,186,-111,-75,126,78,-28,-15,62,3
-198,-173,25,186,-111,-74,126,78,-28,-16,62,3
-197,-172,25,185,-111,-73,126,79,-28,-16,62,4
-198,-172,26,185,-112,-73,126,79,-27,-16,63,4
-201,-173,28,187,-114,-72,126,79,-26,-15,63,5
-203,-173,30,188,-116,-71,127,79,-26,-14,64,6
-203,-174,29,189,-116,-72,127,78,-26,-13,64,5
-202,-174,28,188,-115,-73,127,78,-26,-13,65,5
-201,-174,27,188,-114,-73,128,79,-25,-14,64,4
-199,-176,23,188,-111,-76,129,81,-24,-14,61,3
-198,-178,20,188,-109,-79,133,88,-21,-15,58,-1
-197,-182,15,190,-106,-83,138,97,-15,-15,54,-6
-198,-186,12,192,-105,-87,144,106,-7,-13,51,-10
-201,-187,14,194,-107,-86,149,113,1,-10,50,-12
-204,-187,17,196,-110,-85,152,118,9,-3,52,-13
-207,-185,22,196,-114,-81,154,119,15,4,55,-12
-209,-181,28,195,-118,-76,155,121,20,11,60,-8
-208,-178,30,193,-119,-74,154,121,24,17,65,-5
-204,-174,30,189,-117,-72,154,123,29,26,73,-1
-198,-170,28,184,-113,-71,153,124,34,35,82,3
-192,-165,27,179,-109,-69,153,129,45,53,97,14
-184,-155,29,170,-106,-63,149,132,62,81,119,27
-176,-141,35,159,-105,-53,142,133,83,118,151,46
-164,-126,38,145,-101,-44,132,131,105,167,192,72
-151,-108,43,130,-97,-32,120,125,125,219,240,102
-140,-87,53,114,-96,-17,104,113,133,263,287,136
-133,-65,68,99,-100,2,88,91,118,289,328,168
-131,-45,86,88,-108,21,69,58,74,295,357,193
-129,-24,105,77,-117,41,51,21,20,295,386,217
-126,1,127,63,-126,64,30,-15,-28,299,416,243
-125,20,145,53,-135,83,17,-38,-61,308,442,264
-131,21,152,55,-141,87,19,-41,-81,305,439,264
-147,7,154,70,-150,81,36,-28,-93,278,401,244
-169,-8,161,89,-165,77,53,-16,-111,216,335,213
-190,-24,166,107,-178,71,62,-17,-145,125,257,177
-208,-42,166,125,-187,62,68,-24,-189,24,179,139
-223,-61,162,142,-192,51,75,-30,-232,-69,107,100
-231,-85,146,158,-188,31,84,-31,-265,-147,49,66
-235,-115,120,175,-177,3,96,-23,-284,-213,2,35
-237,-145,92,191,-164,-26,114,-5,-279,-249,-29,8
-237,-169,68,203,-152,-50,133,18,-255,-241,-41,-12
-238,-185,53,212,-145,-66,150,39,-228,-209,-38,-22
