I,II,III,aVR,aVL,aVF,V1,V2,V3,V4,V5,V6
291,128,-163,-209,227,-17,-297,-345,-277,-227,-246,-177
290,127,-163,-208,227,-18,-298,-347,-280,-228,-247,-178
289,127,-162,-208,226,-17,-297,-348,-280,-227,-247,-178
288,127,-161,-207,225,-17,-297,-348,-280,-227,-247,-178
287,127,-160,-207,224,-16,-296,-348,-280,-227,-247,-178
286,126,-160,-206,223,-17,-294,-346,-280,-227,-247,-178
285,125,-160,-205,223,-17,-293,-346,-280,-228,-247,-178
283,122,-161,-202,222,-19,-294,-346,-282,-231,-250,-181
281,120,-161,-200,221,-20,-292,-345,-283,-232,-251,-182
280,118,-162,-199,221,-22,-291,-345,-284,-233,-253,-184
279,118,-161,-198,220,-21,-292,-347,-285,-234,-254,-185
277,117,-160,-197,219,-21,-291,-348,-285,-234,-254,-185
276,117,-159,-196,218,-21,-292,-350,-286,-235,-254,-185
275,117,-158,-196,217,-20,-292,-350,-285,-234,-253,-184
276,117,-159,-196,218,-21,-293,-350,-286,-235,-254,-185
276,117,-159,-196,218,-21,-293,-349,-286,-234,-252,-184
275,118,-157,-196,216,-19,-292,-350,-286,-234,-252,-183
275,118,-157,-196,216,-19,-292,-349,-286,-234,-252,-184
276,118,-158,-197,217,-20,-292,-348,-285,-234,-253,-184
276,118,-158,-197,217,-20,-292,-348,-285,-234,-253,-184
276,118,-158,-197,217,-20,-293,-349,-285,-234,-253,-184
275,118,-157,-196,216,-19,-293,-349,-286,-234,-253,-184
274,118,-156,-196,215,-19,-293,-350,-286,-233,-252,-183
274,117,-157,-195,216,-20,-294,-351,-287,-234,-253,-183
274,117,-157,-195,216,-20,-294,-351,-287,-235,-253,-184
275,117,-158,-196,217,-20,-293,-350,-286,-234,-253,-183
275,117,-158,-196,217,-20,-292,-349,-285,-234,-252,-183
275,117,-158,-196,217,-20,-292,-348,-286,-234,-252,-183
275,117,-158,-196,217,-20,-293,-348,-286,-234,-252,-183
274,117,-157,-195,216,-20,-293,-349,-286,-234,-253,-184
274,117,-157,-195,216,-20,-293,-349,-286,-234,-254,-184
274,117,-157,-195,216,-20,-293,-350,-285,-234,-253,-184
274,118,-156,-196,215,-19,-293,-350,-285,-233,-253,-183
274,118,-156,-196,215,-19,-292,-350,-285,-233,-252,-182
273,118,-155,-195,214,-18,-291,-350,-285,-233,-252,-182
273,118,-155,-195,214,-18,-292,-350,-285,-234,-252,-182
274,119,-155,-196,215,-18,-293,-350,-286,-235,-253,-183
274,120,-154,-197,214,-17,-292,-348,-286,-235,-253,-183
274,119,-155,-196,215,-18,-292,-349,-286,-235,-253,-184
273,118,-155,-195,214,-18,-292,-348,-284,-234,-252,-184
274,118,-156,-196,215,-19,-293,-348,-284,-234,-253,-184
274,117,-157,-195,216,-20,-293,-347,-284,-233,-253,-183
274,117,-157,-195,216,-20,-293,-348,-284,-233,-252,-183
274,117,-157,-195,216,-20,-292,-349,-284,-232,-251,-182
274,117,-157,-195,216,-20,-292,-349,-284,-232,-251,-181
273,117,-156,-195,215,-19,-292,-350,-285,-233,-252,-182
271,116,-155,-193,213,-19,-292,-349,-285,-234,-252,-182
271,116,-155,-193,213,-19,-292,-348,-286,-235,-253,-183
271,116,-155,-193,213,-19,-291,-347,-286,-235,-253,-183
272,116,-156,-194,214,-20,-291,-348,-286,-235,-253,-183
272,117,-155,-194,214,-19,-292,-348,-286,-234,-252,-183
272,118,-154,-195,213,-18,-293,-349,-285,-233,-252,-183
273,119,-154,-196,214,-17,-292,-349,-284,-232,-251,-182
273,119,-154,-196,214,-17,-291,-348,-284,-232,-251,-180
272,119,-153,-195,213,-17,-292,-349,-285,-233,-251,-181
271,118,-153,-194,212,-17,-291,-349,-285,-233,-251,-182
272,119,-153,-195,213,-17,-292,-349,-285,-234,-251,-182
273,119,-154,-196,214,-17,-291,-347,-285,-233,-251,-181
272,119,-153,-195,213,-17,-292,-347,-286,-234,-252,-183
271,118,-153,-194,212,-17,-291,-347,-285,-234,-252,-183
271,117,-154,-194,213,-18,-292,-348,-285,-234,-252,-183
271,116,-155,-193,213,-19,-292,-349,-285,-234,-252,-182
271,116,-155,-193,213,-19,-292,-350,-285,-234,-252,-182
271,116,-155,-193,213,-19,-292,-350,-285,-234,-251,-181
272,116,-156,-194,214,-20,-292,-349,-285,-233,-251,-180
273,117,-156,-195,215,-19,-293,-349,-286,-234,-251,-182
273,117,-156,-195,215,-19,-292,-348,-285,-234,-251,-182
274,118,-156,-196,215,-19,-291,-347,-285,-234,-251,-182
275,119,-156,-197,216,-18,-292,-347,-285,-235,-252,-182
273,119,-154,-196,214,-17,-290,-347,-284,-234,-251,-182
271,118,-153,-194,212,-17,-289,-347,-284,-233,-250,-181
271,118,-153,-194,212,-17,-290,-347,-283,-232,-250,-181
272,119,-153,-195,213,-17,-291,-348,-284,-232,-250,-181
272,119,-153,-195,213,-17,-291,-348,-284,-232,-250,-180
272,119,-153,-195,213,-17,-291,-349,-284,-233,-250,-180
271,119,-152,-195,212,-16,-291,-349,-284,-234,-250,-181
272,119,-153,-195,213,-17,-291,-348,-285,-234,-250,-182
272,119,-153,-195,213,-17,-290,-347,-284,-234,-250,-182
272,119,-153,-195,213,-17,-289,-347,-284,-234,-250,-182
272,119,-153,-195,213,-17,-289,-347,-284,-234,-250,-182
273,120,-153,-196,213,-16,-291,-349,-285,-234,-251,-183
273,120,-153,-196,213,-16,-291,-349,-285,-233,-250,-182
272,119,-153,-195,213,-17,-291,-349,-285,-233,-249,-181
272,119,-153,-195,213,-17,-291,-349,-285,-234,-249,-181
274,120,-154,-197,214,-17,-291,-349,-285,-233,-249,-181
274,120,-154,-197,214,-17,-290,-348,-285,-233,-249,-181
273,120,-153,-196,213,-16,-290,-348,-285,-234,-249,-181
272,120,-152,-196,212,-16,-290,-346,-284,-233,-249,-180
271,120,-151,-195,211,-15,-289,-346,-284,-233,-248,-180
271,120,-151,-195,211,-15,-289,-345,-283,-232,-248,-180
271,120,-151,-195,211,-15,-288,-345,-282,-232,-248,-179
271,119,-152,-195,212,-16,-287,-347,-282,-232,-248,-180
271,119,-152,-195,212,-16,-289,-348,-283,-233,-249,-181
271,119,-152,-195,212,-16,-289,-348,-284,-233,-249,-180
271,120,-151,-195,211,-15,-289,-348,-284,-233,-249,-179
271,120,-151,-195,211,-15,-289,-348,-284,-233,-248,-180
270,121,-149,-195,210,-14,-289,-347,-285,-234,-248,-181
269,121,-148,-195,209,-13,-289,-346,-285,-234,-249,-181
270,120,-150,-195,210,-15,-290,-346,-285,-234,-249,-181
270,120,-150,-195,210,-15,-290,-347,-285,-234,-250,-182
270,120,-150,-195,210,-15,-290,-347,-285,-234,-250,-182
271,120,-151,-195,211,-15,-289,-347,-284,-234,-249,-181
272,121,-151,-196,212,-15,-290,-348,-284,-234,-248,-181
271,122,-149,-196,210,-13,-290,-348,-284,-234,-248,-181
270,123,-147,-196,209,-12,-289,-348,-285,-234,-248,-180
271,123,-148,-197,210,-12,-289,-347,-286,-234,-248,-180
272,124,-148,-198,210,-12,-289,-347,-286,-234,-249,-181
272,123,-149,-197,211,-13,-288,-346,-285,-233,-248,-180
272,123,-149,-197,211,-13,-288,-345,-284,-233,-248,-180
272,123,-149,-197,211,-13,-288,-345,-283,-232,-248,-180
271,122,-149,-196,210,-13,-288,-346,-282,-232,-248,-180
271,121,-150,-196,211,-14,-289,-346,-282,-231,-247,-179
270,120,-150,-195,210,-15,-290,-347,-283,-231,-247,-180
269,121,-148,-195,209,-13,-290,-347,-283,-231,-248,-180
269,121,-148,-195,209,-13,-289,-347,-283,-230,-247,-179
268,122,-146,-195,207,-12,-289,-348,-284,-232,-247,-179
268,122,-146,-195,207,-12,-291,-348,-285,-233,-248,-179
269,122,-147,-195,208,-12,-289,-346,-285,-233,-248,-178
271,123,-148,-197,210,-12,-288,-346,-285,-233,-249,-179
271,122,-149,-196,210,-13,-289,-346,-284,-233,-249,-180
270,122,-148,-196,209,-13,-288,-345,-282,-231,-247,-179
271,122,-149,-196,210,-13,-290,-347,-283,-230,-247,-179
272,121,-151,-196,212,-15,-290,-347,-283,-230,-246,-178
272,120,-152,-196,212,-16,-288,-346,-282,-229,-246,-178
271,119,-152,-195,212,-16,-286,-344,-282,-230,-247,-179
271,119,-152,-195,212,-16,-283,-338,-280,-230,-248,-180
272,119,-153,-195,213,-17,-279,-331,-278,-232,-250,-181
272,116,-156,-194,214,-20,-275,-324,-277,-234,-254,-183
271,113,-158,-192,215,-22,-270,-319,-276,-236,-257,-187
269,113,-156,-191,213,-21,-264,-312,-271,-237,-258,-189
271,114,-157,-192,214,-21,-257,-303,-267,-239,-259,-191
274,115,-159,-194,217,-22,-252,-291,-260,-240,-259,-192
276,118,-158,-197,217,-20,-249,-281,-248,-236,-256,-190
277,127,-150,-202,214,-11,-245,-272,-230,-225,-247,-182
280,139,-141,-209,211,-1,-242,-260,-208,-208,-236,-172
287,151,-136,-219,212,8,-240,-240,-178,-187,-222,-161
301,166,-135,-233,218,16,-233,-210,-140,-158,-205,-149
317,182,-135,-249,226,24,-224,-181,-97,-125,-185,-134
328,198,-130,-263,229,34,-220,-166,-56,-90,-163,-116
335,220,-115,-277,225,53,-225,-169,-22,-51,-136,-93
343,250,-93,-296,218,79,-238,-187,2,-1,-101,-63
351,282,-69,-316,210,107,-260,-224,4,50,-63,-30
354,312,-42,-333,198,135,-289,-287,-19,99,-24,4
354,338,-16,-346,185,161,-325,-370,-56,149,12,36
350,363,13,-356,169,188,-367,-459,-92,198,43,63
340,388,48,-364,146,218,-412,-544,-115,249,75,91
326,411,85,-368,121,248,-453,-617,-134,292,101,114
315,403,88,-359,114,246,-470,-661,-155,306,99,110
302,348,46,-325,128,197,-451,-666,-183,270,49,63
287,270,-17,-278,152,127,-412,-652,-218,197,-28,-5
276,212,-64,-244,170,74,-391,-645,-258,122,-93,-60
269,178,-91,-223,180,44,-398,-640,-300,48,-140,-97
262,150,-112,-206,187,19,-416,-622,-354,-43,-184,-129
253,124,-129,-188,191,-2,-429,-596,-422,-145,-224,-156
244,105,-139,-174,192,-17,-433,-571,-487,-237,-256,-178
241,97,-144,-169,193,-23,-426,-534,-514,-301,-278,-195
248,98,-150,-173,199,-26,-415,-488,-494,-327,-288,-206
259,104,-155,-181,207,-25,-405,-448,-450,-318,-288,-209
262,107,-155,-184,209,-24,-387,-420,-409,-292,-283,-205
261,110,-151,-185,206,-20,-365,-401,-376,-271,-275,-201
265,116,-149,-190,207,-16,-352,-388,-348,-255,-264,-193
274,127,-147,-200,211,-10,-347,-378,-323,-235,-250,-182
278,137,-141,-207,210,-2,-342,-371,-303,-218,-241,-175
277,141,-136,-209,207,3,-334,-366,-285,-207,-235,-170
278,143,-135,-210,207,4,-324,-362,-270,-199,-230,-167
282,144,-138,-213,210,3,-317,-357,-260,-194,-228,-165
283,141,-142,-212,213,0,-309,-349,-251,-192,-227,-163
283,138,-145,-210,214,-3,-303,-344,-247,-192,-228,-165
282,135,-147,-208,215,-6,-300,-340,-246,-191,-228,-166
282,134,-148,-208,215,-7,-299,-336,-246,-191,-227,-166
280,133,-147,-206,214,-7,-298,-333,-246,-192,-228,-165
279,131,-148,-205,214,-8,-296,-332,-248,-193,-228,-164
282,130,-152,-206,217,-11,-296,-332,-251,-194,-229,-166
286,129,-157,-207,222,-14,-295,-330,-249,-196,-230,-167
283,128,-155,-205,219,-13,-291,-328,-244,-197,-232,-169
279,127,-152,-203,216,-12,-289,-328,-242,-197,-231,-167
280,127,-153,-203,217,-13,-290,-329,-243,-196,-229,-167
282,128,-154,-205,218,-13,-291,-328,-243,-196,-231,-169
281,130,-151,-205,216,-10,-292,-328,-242,-196,-233,-171
279,131,-148,-205,214,-8,-291,-327,-241,-194,-231,-167
281,130,-151,-205,216,-10,-293,-328,-244,-194,-230,-166
283,128,-155,-205,219,-13,-293,-327,-244,-195,-230,-167
284,129,-155,-206,220,-13,-292,-326,-243,-194,-230,-168
283,129,-154,-206,219,-12,-291,-325,-241,-193,-229,-168
282,130,-152,-206,217,-11,-290,-326,-241,-194,-231,-169
284,131,-153,-207,219,-11,-291,-327,-241,-196,-232,-169
285,133,-152,-209,219,-9,-291,-327,-240,-194,-231,-169
284,131,-153,-207,219,-11,-290,-325,-238,-193,-230,-168
283,128,-155,-205,219,-13,-289,-325,-238,-193,-230,-168
284,128,-156,-206,220,-14,-290,-325,-238,-191,-229,-167
284,128,-156,-206,220,-14,-290,-324,-237,-189,-227,-166
285,126,-159,-205,222,-16,-290,-324,-237,-189,-228,-167
285,126,-159,-205,222,-16,-289,-324,-236,-189,-228,-166
286,128,-158,-207,222,-15,-289,-324,-236,-189,-227,-165
286,129,-157,-207,222,-14,-288,-325,-235,-190,-228,-166
285,129,-156,-207,221,-13,-288,-325,-234,-190,-228,-166
285,130,-155,-207,220,-12,-288,-324,-232,-187,-227,-166
285,131,-154,-208,220,-11,-287,-322,-231,-186,-226,-165
284,131,-153,-207,219,-11,-289,-323,-231,-188,-227,-165
283,130,-153,-206,218,-11,-290,-323,-231,-186,-227,-165
285,128,-157,-206,221,-14,-291,-322,-231,-183,-226,-164
287,128,-159,-207,223,-15,-289,-321,-230,-181,-224,-163
288,130,-158,-209,223,-14,-287,-321,-228,-180,-223,-163
288,132,-156,-210,222,-12,-287,-321,-228,-180,-223,-163
287,132,-155,-209,221,-11,-286,-320,-227,-180,-224,-163
287,132,-155,-209,221,-11,-287,-320,-226,-181,-226,-164
287,134,-153,-210,220,-9,-288,-322,-226,-181,-225,-164
289,134,-155,-211,222,-10,-290,-322,-226,-180,-223,-164
289,133,-156,-211,223,-11,-290,-321,-223,-178,-221,-163
287,132,-155,-209,221,-11,-289,-319,-221,-175,-221,-161
288,133,-155,-210,222,-11,-289,-319,-221,-175,-221,-161
289,135,-154,-212,222,-9,-288,-319,-222,-174,-220,-160
290,136,-154,-213,222,-9,-290,-321,-223,-175,-222,-162
289,135,-154,-212,222,-9,-290,-321,-222,-175,-222,-162
288,133,-155,-210,222,-11,-289,-320,-220,-174,-222,-162
288,131,-157,-209,223,-13,-287,-319,-218,-173,-221,-161
288,132,-156,-210,222,-12,-288,-319,-216,-174,-220,-161
289,134,-155,-211,222,-10,-290,-319,-215,-172,-219,-161
289,135,-154,-212,222,-9,-291,-319,-214,-169,-218,-160
289,135,-154,-212,222,-9,-291,-318,-214,-169,-218,-159
289,135,-154,-212,222,-9,-291,-317,-213,-167,-217,-157
290,136,-154,-213,222,-9,-292,-316,-212,-166,-217,-157
290,136,-154,-213,222,-9,-292,-316,-212,-165,-216,-157
291,135,-156,-213,224,-10,-292,-317,-211,-165,-216,-157
291,135,-156,-213,224,-10,-291,-317,-210,-165,-216,-157
291,136,-155,-213,223,-9,-291,-318,-208,-164,-216,-157
291,137,-154,-214,223,-8,-290,-317,-206,-162,-214,-156
291,139,-152,-215,222,-6,-291,-316,-204,-161,-213,-156
292,140,-152,-216,222,-6,-292,-316,-203,-160,-213,-155
292,142,-150,-217,221,-4,-293,-314,-202,-158,-211,-153
294,142,-152,-218,223,-5,-293,-314,-201,-157,-210,-153
295,143,-152,-219,224,-4,-294,-316,-200,-156,-210,-154
294,143,-151,-218,223,-4,-294,-315,-199,-154,-209,-152
293,143,-150,-218,222,-3,-294,-315,-198,-154,-209,-152
294,144,-150,-219,222,-3,-294,-315,-197,-153,-209,-152
295,145,-150,-220,223,-2,-293,-314,-194,-152,-208,-151
296,146,-150,-221,223,-2,-295,-315,-193,-151,-207,-151
297,147,-150,-222,224,-1,-296,-314,-191,-149,-207,-150
298,148,-150,-223,224,-1,-296,-313,-188,-147,-204,-148
300,149,-151,-224,226,-1,-297,-312,-187,-144,-202,-148
301,150,-151,-225,226,0,-298,-312,-186,-143,-202,-147
301,151,-150,-226,226,1,-298,-311,-184,-140,-201,-145
301,151,-150,-226,226,1,-297,-311,-182,-138,-199,-144
301,152,-149,-226,225,2,-298,-311,-181,-137,-198,-144
302,153,-149,-227,226,2,-297,-310,-177,-134,-196,-142
303,156,-147,-229,225,5,-298,-310,-175,-133,-197,-142
305,158,-147,-231,226,6,-299,-309,-173,-130,-195,-141
307,159,-148,-233,228,6,-301,-309,-170,-128,-194,-140
308,160,-148,-234,228,6,-302,-310,-168,-126,-193,-140
308,161,-147,-234,228,7,-303,-308,-165,-122,-190,-137
307,161,-146,-234,227,8,-303,-307,-162,-119,-187,-135
308,162,-146,-235,227,8,-303,-306,-159,-115,-186,-134
308,162,-146,-235,227,8,-304,-306,-157,-112,-184,-133
308,163,-145,-235,227,9,-305,-306,-157,-111,-184,-132
309,164,-145,-236,227,10,-305,-305,-152,-107,-182,-130
311,166,-145,-238,228,11,-306,-305,-148,-104,-181,-129
313,168,-145,-240,229,12,-307,-304,-143,-100,-177,-127
316,171,-145,-243,231,13,-309,-304,-139,-96,-174,-125
319,173,-146,-246,233,14,-312,-304,-137,-93,-172,-123
320,175,-145,-247,233,15,-313,-303,-134,-88,-169,-120
322,177,-145,-249,234,16,-315,-302,-131,-83,-166,-118
323,179,-144,-251,234,18,-316,-302,-127,-79,-163,-116
324,180,-144,-252,234,18,-317,-302,-125,-76,-161,-114
325,182,-143,-253,234,20,-318,-302,-123,-72,-159,-112
327,185,-142,-256,235,22,-319,-302,-117,-67,-156,-110
329,187,-142,-258,236,23,-321,-303,-113,-63,-155,-108
330,189,-141,-259,236,24,-322,-303,-109,-59,-152,-105
332,191,-141,-261,237,25,-323,-302,-105,-55,-148,-102
334,193,-141,-263,238,26,-325,-302,-101,-49,-144,-99
336,195,-141,-265,239,27,-328,-302,-99,-45,-141,-97
338,197,-141,-267,240,28,-330,-303,-97,-40,-138,-95
339,199,-140,-269,240,30,-331,-304,-94,-37,-135,-94
340,202,-138,-271,239,32,-333,-305,-92,-33,-134,-92
340,204,-136,-272,238,34,-334,-306,-90,-30,-132,-90
341,205,-136,-273,239,35,-336,-308,-87,-27,-130,-88
342,207,-135,-274,239,36,-338,-309,-85,-24,-127,-86
343,210,-133,-276,238,39,-340,-309,-82,-20,-124,-84
346,214,-132,-280,239,41,-341,-309,-79,-16,-121,-81
348,216,-132,-282,240,42,-343,-310,-77,-12,-118,-78
349,218,-131,-283,240,44,-345,-311,-76,-9,-116,-75
349,219,-130,-284,240,45,-346,-312,-75,-7,-113,-73
349,221,-128,-285,239,47,-348,-315,-76,-6,-112,-73
350,221,-129,-285,240,46,-349,-317,-77,-4,-111,-71
349,222,-127,-285,238,48,-350,-319,-78,-4,-109,-70
349,223,-126,-286,238,49,-350,-320,-78,-4,-109,-69
347,224,-123,-285,235,51,-349,-321,-78,-5,-109,-68
346,224,-122,-285,234,51,-350,-322,-80,-7,-109,-68
344,225,-119,-284,232,53,-349,-322,-82,-9,-108,-67
344,225,-119,-284,232,53,-350,-324,-86,-12,-108,-67
343,225,-118,-284,231,54,-350,-325,-92,-17,-110,-69
341,225,-116,-283,229,55,-348,-325,-97,-22,-112,-70
338,223,-115,-280,227,54,-346,-326,-103,-27,-115,-72
335,221,-114,-278,225,54,-343,-326,-108,-33,-118,-74
332,218,-114,-275,223,52,-341,-326,-115,-41,-122,-77
328,215,-113,-271,221,51,-339,-326,-122,-51,-127,-81
326,212,-114,-269,220,49,-336,-326,-129,-60,-131,-84
324,210,-114,-267,219,48,-332,-325,-135,-69,-136,-88
322,207,-115,-264,219,46,-327,-322,-140,-74,-140,-91
319,204,-115,-261,217,45,-323,-322,-145,-81,-144,-95
316,201,-115,-258,216,43,-321,-322,-153,-90,-149,-100
313,197,-116,-255,215,41,-318,-322,-161,-99,-155,-104
"
		310","
		193","
		-117","
		-251","
		214","
		38","
		-314","
		-321","
		-167","
		-106","
		-159","
		-107"
307,190,-117,-248,212,37,-311,-321,-173,-115,-164,-112
304,186,-118,-245,211,34,-308,-322,-180,-124,-168,-117
301,182,-119,-241,210,32,-306,-323,-186,-131,-173,-122
299,179,-120,-239,210,30,-303,-324,-191,-138,-178,-125
297,175,-122,-236,210,27,-300,-324,-196,-144,-182,-128
296,172,-124,-234,210,24,-298,-324,-201,-151,-186,-132
294,168,-126,-231,210,21,-296,-324,-205,-155,-189,-136
293,164,-129,-228,211,18,-294,-323,-210,-160,-191,-137
292,161,-131,-226,212,15,-293,-325,-216,-166,-196,-139
289,157,-132,-223,211,13,-290,-325,-219,-171,-198,-141
286,153,-133,-219,210,10,-289,-326,-223,-176,-201,-143
284,150,-134,-217,209,8,-287,-327,-226,-179,-203,-145
283,148,-135,-215,209,7,-286,-328,-230,-183,-207,-149
281,146,-135,-213,208,6,-285,-329,-233,-187,-210,-151
279,144,-135,-211,207,5,-285,-330,-236,-191,-212,-153
278,142,-136,-210,207,3,-285,-331,-238,-193,-214,-154
278,140,-138,-209,208,1,-284,-331,-239,-195,-215,-156
278,139,-139,-208,209,0,-285,-332,-242,-198,-216,-158
277,138,-139,-207,208,0,-284,-333,-245,-200,-217,-159
276,137,-139,-206,208,-1,-284,-333,-248,-202,-219,-160
275,136,-139,-205,207,-1,-283,-334,-251,-205,-221,-162
276,135,-141,-205,209,-3,-283,-335,-253,-207,-223,-163
276,135,-141,-205,209,-3,-281,-335,-253,-208,-224,-164
276,135,-141,-205,209,-3,-280,-335,-253,-210,-225,-165
275,134,-141,-204,208,-3,-280,-334,-253,-210,-225,-165
274,133,-141,-203,208,-4,-279,-334,-253,-211,-225,-165
274,132,-142,-203,208,-5,-280,-335,-254,-212,-225,-166
273,131,-142,-202,208,-5,-279,-334,-255,-211,-224,-165
274,130,-144,-202,209,-7,-279,-335,-256,-212,-225,-165
274,130,-144,-202,209,-7,-280,-336,-258,-214,-226,-166
274,129,-145,-201,210,-8,-280,-336,-260,-215,-227,-167
272,129,-143,-200,208,-7,-279,-336,-260,-216,-228,-167
271,129,-142,-200,207,-6,-279,-336,-261,-217,-229,-168
270,129,-141,-199,206,-6,-279,-336,-261,-217,-229,-168
271,129,-142,-200,207,-6,-279,-335,-261,-218,-229,-168
271,129,-142,-200,207,-6,-279,-335,-260,-217,-229,-168
271,128,-143,-199,207,-7,-280,-334,-260,-217,-228,-168
271,128,-143,-199,207,-7,-280,-334,-261,-216,-228,-169
270,127,-143,-198,207,-8,-280,-334,-261,-216,-227,-168
270,128,-142,-199,206,-7,-280,-335,-262,-217,-227,-167
272,129,-143,-200,208,-7,-280,-335,-262,-217,-227,-168
274,130,-144,-202,209,-7,-279,-336,-262,-217,-228,-168
274,130,-144,-202,209,-7,-279,-334,-261,-217,-227,-167
273,130,-143,-201,208,-6,-279,-333,-261,-216,-227,-167
273,131,-142,-202,208,-5,-279,-331,-260,-216,-226,-168
273,131,-142,-202,208,-5,-279,-331,-259,-216,-226,-168
271,130,-141,-200,206,-5,-278,-330,-258,-214,-224,-167
271,130,-141,-200,206,-5,-278,-330,-258,-214,-224,-166
272,130,-142,-201,207,-6,-279,-331,-259,-214,-225,-167
272,130,-142,-201,207,-6,-280,-331,-259,-214,-225,-167
272,130,-142,-201,207,-6,-281,-331,-260,-215,-226,-168
273,129,-144,-201,209,-7,-281,-331,-261,-215,-226,-168
272,129,-143,-200,208,-7,-279,-331,-260,-215,-226,-168
270,129,-141,-199,206,-6,-279,-330,-260,-215,-226,-168
272,130,-142,-201,207,-6,-279,-330,-260,-215,-226,-168
274,132,-142,-203,208,-5,-278,-330,-258,-214,-225,-167
276,133,-143,-204,210,-5,-279,-330,-259,-214,-225,-167
275,133,-142,-204,209,-4,-280,-329,-259,-214,-224,-167
274,132,-142,-203,208,-5,-280,-329,-259,-213,-224,-166
273,132,-141,-202,207,-4,-281,-329,-260,-213,-225,-167
273,131,-142,-202,208,-5,-280,-328,-259,-213,-224,-166
273,131,-142,-202,208,-5,-280,-328,-260,-213,-223,-166
273,131,-142,-202,208,-5,-279,-328,-259,-213,-224,-166
273,131,-142,-202,208,-5,-279,-328,-258,-213,-224,-166
272,131,-141,-201,207,-5,-279,-328,-258,-213,-223,-166
272,132,-140,-202,206,-4,-279,-329,-258,-213,-223,-166
271,132,-139,-201,205,-3,-280,-328,-258,-213,-223,-167
271,132,-139,-201,205,-3,-281,-327,-259,-213,-223,-166
272,132,-140,-202,206,-4,-281,-327,-259,-212,-223,-166
272,131,-141,-201,207,-5,-281,-328,-259,-213,-224,-166
272,131,-141,-201,207,-5,-281,-328,-260,-213,-224,-166
271,131,-140,-201,206,-4,-280,-329,-260,-213,-224,-166
271,132,-139,-201,205,-3,-280,-328,-260,-214,-224,-166
271,133,-138,-202,205,-2,-279,-328,-259,-214,-224,-166
271,133,-138,-202,205,-2,-279,-327,-259,-214,-223,-166
271,133,-138,-202,205,-2,-280,-327,-258,-214,-223,-166
271,132,-139,-201,205,-3,-280,-328,-258,-214,-222,-166
271,132,-139,-201,205,-3,-281,-328,-259,-214,-222,-166
272,132,-140,-202,206,-4,-281,-328,-259,-214,-223,-166
272,132,-140,-202,206,-4,-282,-329,-260,-214,-224,-166
272,132,-140,-202,206,-4,-283,-330,-261,-215,-224,-166
272,132,-140,-202,206,-4,-283,-331,-262,-216,-224,-166
272,132,-140,-202,206,-4,-282,-331,-262,-217,-225,-167
271,133,-138,-202,205,-2,-281,-332,-262,-217,-225,-167
271,134,-137,-202,204,-1,-282,-332,-262,-217,-225,-168
272,134,-138,-203,205,-2,-281,-331,-261,-217,-224,-167
272,135,-137,-203,205,-1,-281,-330,-262,-217,-223,-166
273,134,-139,-203,206,-2,-281,-330,-262,-217,-223,-166
273,134,-139,-203,206,-2,-281,-331,-263,-216,-223,-166
273,134,-139,-203,206,-2,-281,-331,-263,-217,-224,-167
272,133,-139,-202,206,-3,-282,-332,-264,-219,-224,-167
271,132,-139,-201,205,-3,-281,-332,-265,-219,-224,-167
271,132,-139,-201,205,-3,-281,-333,-265,-220,-225,-167
271,133,-138,-202,205,-2,-282,-334,-265,-220,-226,-168
271,133,-138,-202,205,-2,-283,-334,-265,-221,-226,-168
271,133,-138,-202,205,-2,-283,-334,-265,-221,-226,-168
271,133,-138,-202,205,-2,-284,-334,-265,-221,-226,-168
271,133,-138,-202,205,-2,-284,-334,-266,-221,-225,-168
270,132,-138,-201,204,-3,-283,-334,-266,-220,-225,-168
269,132,-137,-200,203,-2,-282,-334,-266,-219,-224,-167
270,132,-138,-201,204,-3,-283,-335,-267,-221,-225,-168
270,132,-138,-201,204,-3,-283,-336,-268,-221,-226,-169
270,131,-139,-200,205,-4,-283,-336,-267,-222,-226,-169
269,131,-138,-200,204,-3,-283,-336,-268,-223,-227,-169
269,132,-137,-200,203,-2,-283,-335,-268,-224,-227,-169
269,132,-137,-200,203,-2,-283,-336,-269,-224,-227,-169
270,132,-138,-201,204,-3,-284,-337,-270,-225,-227,-170
271,133,-138,-202,205,-2,-283,-336,-269,-223,-226,-169
271,133,-138,-202,205,-2,-283,-336,-270,-223,-226,-169
270,133,-137,-201,204,-2,-283,-337,-271,-224,-227,-170
268,132,-136,-200,202,-2,-283,-337,-271,-224,-227,-170
268,131,-137,-199,203,-3,-283,-337,-271,-225,-228,-171
269,132,-137,-200,203,-2,-282,-336,-271,-225,-228,-170
269,132,-137,-200,203,-2,-282,-336,-270,-225,-228,-170
269,133,-136,-201,203,-1,-282,-337,-271,-226,-228,-171
269,133,-136,-201,203,-1,-282,-336,-271,-226,-228,-171
268,132,-136,-200,202,-2,-282,-335,-271,-226,-228,-171
268,131,-137,-199,203,-3,-283,-336,-272,-226,-229,-172
269,129,-140,-199,205,-5,-283,-336,-272,-226,-228,-171
268,128,-140,-198,204,-6,-283,-337,-274,-227,-229,-172
267,126,-141,-196,204,-7,-283,-337,-274,-227,-230,-172
266,125,-141,-195,204,-8,-282,-337,-273,-227,-230,-171
266,125,-141,-195,204,-8,-282,-337,-273,-227,-230,-172
266,126,-140,-196,203,-7,-281,-336,-273,-227,-230,-171
267,127,-140,-197,204,-6,-281,-335,-273,-227,-230,-172
268,128,-140,-198,204,-6,-282,-335,-273,-227,-231,-172
268,129,-139,-198,204,-5,-282,-335,-272,-227,-230,-171
268,129,-139,-198,204,-5,-282,-334,-272,-227,-229,-171
268,129,-139,-198,204,-5,-282,-335,-274,-227,-230,-171
268,128,-140,-198,204,-6,-281,-336,-275,-227,-230,-172
268,128,-140,-198,204,-6,-280,-335,-276,-228,-230,-172
267,127,-140,-197,204,-6,-280,-335,-275,-228,-230,-172
266,127,-139,-196,203,-6,-281,-336,-276,-229,-232,-173
266,127,-139,-196,203,-6,-281,-336,-276,-229,-232,-173
267,128,-139,-197,203,-5,-281,-335,-274,-228,-232,-173
267,128,-139,-197,203,-5,-281,-334,-273,-228,-231,-173
267,127,-140,-197,204,-6,-281,-334,-273,-228,-231,-173
268,127,-141,-197,205,-7,-281,-334,-274,-228,-230,-173
268,127,-141,-197,205,-7,-282,-334,-274,-228,-230,-173
268,128,-140,-198,204,-6,-283,-335,-276,-229,-232,-174
268,127,-141,-197,205,-7,-281,-335,-276,-229,-232,-173
267,126,-141,-196,204,-7,-281,-336,-277,-230,-233,-174
266,125,-141,-195,204,-8,-281,-336,-276,-230,-233,-173
265,125,-140,-195,203,-7,-281,-336,-277,-230,-233,-174
265,125,-140,-195,203,-7,-282,-336,-276,-230,-233,-174
265,126,-139,-195,202,-6,-282,-336,-276,-230,-233,-174
265,126,-139,-195,202,-6,-283,-336,-276,-230,-233,-174
266,126,-140,-196,203,-7,-283,-335,-276,-229,-233,-174
266,126,-140,-196,203,-7,-282,-335,-276,-229,-232,-173
266,126,-140,-196,203,-7,-282,-335,-276,-229,-232,-173
266,126,-140,-196,203,-7,-281,-335,-276,-229,-232,-172
266,127,-139,-196,203,-6,-281,-335,-277,-230,-233,-173
266,127,-139,-196,203,-6,-280,-335,-276,-230,-232,-173
266,128,-138,-197,202,-5,-280,-334,-276,-229,-233,-174
266,129,-137,-197,202,-4,-280,-334,-275,-229,-233,-173
266,130,-136,-198,201,-3,-281,-334,-275,-230,-233,-174
267,132,-135,-199,201,-1,-282,-334,-274,-230,-232,-174
268,133,-135,-200,202,-1,-281,-333,-273,-228,-231,-173
269,134,-135,-201,202,0,-281,-334,-274,-228,-231,-173
270,135,-135,-202,203,0,-280,-333,-274,-228,-232,-173
272,136,-136,-204,204,0,-279,-332,-274,-228,-231,-172
272,137,-135,-204,204,1,-277,-331,-272,-227,-230,-171
272,136,-136,-204,204,0,-275,-331,-271,-226,-230,-171
273,136,-137,-204,205,0,-274,-329,-270,-226,-229,-171
274,137,-137,-205,206,0,-274,-328,-270,-226,-229,-171
275,137,-138,-206,207,0,-274,-327,-268,-226,-228,-170
275,137,-138,-206,207,0,-276,-328,-269,-226,-229,-170
274,136,-138,-205,206,-1,-277,-329,-270,-226,-228,-170
272,135,-137,-203,205,-1,-276,-330,-270,-226,-228,-170
272,135,-137,-203,205,-1,-275,-329,-269,-225,-228,-170
272,135,-137,-203,205,-1,-272,-328,-268,-225,-228,-170
273,135,-138,-204,206,-1,-272,-329,-269,-225,-228,-171
273,137,-136,-205,205,1,-272,-328,-267,-224,-227,-169
274,140,-134,-207,204,3,-272,-328,-265,-222,-226,-168
276,144,-132,-210,204,6,-272,-327,-262,-220,-224,-167
276,147,-129,-211,203,9,-270,-324,-258,-219,-223,-166
276,149,-127,-212,202,11,-269,-322,-257,-217,-222,-165
275,147,-128,-211,202,10,-268,-322,-258,-216,-221,-165
275,145,-130,-210,203,8,-268,-324,-259,-217,-222,-165
276,145,-131,-210,204,7,-271,-326,-261,-218,-222,-165
276,146,-130,-211,203,8,-277,-329,-262,-219,-222,-165
277,145,-132,-211,205,7,-283,-332,-264,-219,-223,-165
277,143,-134,-210,206,5,-285,-334,-265,-222,-225,-167
276,139,-137,-207,207,1,-284,-333,-266,-223,-227,-168
276,135,-141,-205,209,-3,-284,-333,-268,-225,-229,-170
277,133,-144,-205,211,-5,-285,-334,-270,-226,-230,-171
277,132,-145,-204,211,-6,-286,-335,-272,-228,-232,-173
277,131,-146,-204,212,-7,-288,-337,-275,-229,-233,-174
277,129,-148,-203,213,-9,-288,-339,-277,-230,-233,-175
276,127,-149,-201,213,-11,-287,-340,-278,-231,-234,-175
275,127,-148,-201,212,-10,-287,-341,-279,-232,-235,-176
274,127,-147,-200,211,-10,-285,-340,-278,-231,-234,-174
273,128,-145,-200,209,-8,-284,-339,-277,-231,-234,-174
272,128,-144,-200,208,-8,-283,-339,-277,-232,-234,-174
271,129,-142,-200,207,-6,-282,-339,-277,-232,-235,-175
270,128,-142,-199,206,-7,-282,-338,-278,-233,-236,-176
268,124,-144,-196,206,-10,-280,-337,-279,-234,-236,-177
265,123,-142,-194,204,-9,-278,-336,-280,-235,-237,-178
264,123,-141,-193,203,-9,-277,-336,-281,-236,-238,-179
263,123,-140,-193,202,-8,-277,-336,-280,-236,-239,-178
262,120,-142,-191,202,-11,-279,-338,-283,-238,-240,-180
259,118,-141,-188,200,-11,-279,-340,-284,-239,-240,-180
259,119,-140,-189,200,-10,-280,-342,-285,-241,-242,-182
260,121,-139,-190,200,-9,-280,-343,-285,-240,-242,-182
261,123,-138,-192,200,-7,-280,-342,-284,-239,-241,-182
261,124,-137,-192,199,-6,-280,-341,-283,-238,-240,-180
261,124,-137,-192,199,-6,-280,-340,-282,-238,-239,-180
261,124,-137,-192,199,-6,-281,-341,-283,-238,-240,-180
260,123,-137,-191,199,-7,-281,-340,-283,-238,-239,-180
260,123,-137,-191,199,-7,-281,-341,-283,-238,-239,-180
260,123,-137,-191,199,-7,-281,-341,-283,-238,-239,-180
260,122,-138,-191,199,-8,-281,-341,-284,-239,-240,-181
259,122,-137,-190,198,-7,-281,-341,-284,-240,-241,-181
259,123,-136,-191,198,-6,-281,-342,-284,-240,-241,-181
260,124,-136,-192,198,-6,-282,-343,-285,-240,-242,-182
260,124,-136,-192,198,-6,-282,-342,-285,-240,-241,-181
261,124,-137,-192,199,-6,-281,-342,-284,-239,-241,-181
261,124,-137,-192,199,-6,-281,-341,-285,-239,-240,-181
260,124,-136,-192,198,-6,-282,-342,-285,-240,-240,-181
260,123,-137,-191,199,-7,-281,-342,-284,-239,-239,-180
260,123,-137,-191,199,-7,-281,-342,-284,-240,-240,-180
260,123,-137,-191,199,-7,-281,-341,-284,-240,-240,-180
260,124,-136,-192,198,-6,-281,-342,-285,-241,-241,-181
258,124,-134,-191,196,-5,-280,-341,-284,-240,-241,-180
257,124,-133,-190,195,-4,-280,-341,-284,-240,-241,-181
257,124,-133,-190,195,-4,-280,-341,-283,-240,-241,-181
258,124,-134,-191,196,-5,-280,-340,-283,-239,-241,-181
258,125,-133,-191,196,-4,-281,-340,-283,-239,-240,-180
257,125,-132,-191,195,-3,-281,-340,-283,-239,-240,-181
257,124,-133,-190,195,-4,-281,-340,-283,-239,-241,-181
257,125,-132,-191,195,-3,-281,-340,-283,-239,-240,-181
257,125,-132,-191,195,-3,-280,-340,-283,-240,-241,-180
256,125,-131,-190,194,-3,-280,-340,-283,-241,-242,-181
256,125,-131,-190,194,-3,-280,-341,-283,-241,-242,-181
257,125,-132,-191,195,-3,-280,-342,-284,-241,-242,-182
257,126,-131,-191,194,-2,-280,-342,-283,-241,-241,-182
258,126,-132,-192,195,-3,-281,-342,-283,-241,-242,-183
259,126,-133,-192,196,-3,-281,-341,-283,-241,-241,-183
258,126,-132,-192,195,-3,-282,-341,-284,-241,-241,-183
257,125,-132,-191,195,-3,-281,-340,-284,-241,-241,-182
257,124,-133,-190,195,-4,-281,-341,-284,-241,-242,-182
258,125,-133,-191,196,-4,-279,-340,-283,-241,-241,-182
258,125,-133,-191,196,-4,-278,-340,-282,-240,-240,-182
259,125,-134,-192,197,-4,-280,-342,-284,-241,-242,-183
258,124,-134,-191,196,-5,-280,-341,-283,-241,-241,-182
258,125,-133,-191,196,-4,-280,-340,-283,-240,-241,-182
257,125,-132,-191,195,-3,-280,-339,-282,-240,-241,-182
256,125,-131,-190,194,-3,-280,-339,-283,-240,-240,-182
255,124,-131,-189,193,-3,-279,-338,-282,-239,-239,-181
257,125,-132,-191,195,-3,-279,-339,-282,-239,-239,-181
258,125,-133,-191,196,-4,-278,-338,-281,-238,-239,-180
259,125,-134,-192,197,-4,-279,-339,-282,-239,-240,-181
258,124,-134,-191,196,-5,-279,-339,-282,-238,-239,-180
257,124,-133,-190,195,-4,-279,-339,-282,-238,-239,-181
257,124,-133,-190,195,-4,-279,-338,-282,-238,-238,-181
256,124,-132,-190,194,-4,-279,-338,-281,-238,-238,-180
255,123,-132,-189,194,-4,-280,-339,-281,-238,-238,-180
257,125,-132,-191,195,-3,-279,-338,-281,-238,-238,-180
259,126,-133,-192,196,-3,-278,-337,-280,-237,-237,-180
259,127,-132,-193,196,-2,-279,-337,-280,-237,-238,-179
258,127,-131,-192,195,-2,-279,-338,-281,-238,-238,-180
257,126,-131,-191,194,-2,-278,-338,-280,-237,-238,-179
257,126,-131,-191,194,-2,-278,-338,-280,-237,-238,-180
258,126,-132,-192,195,-3,-279,-339,-281,-238,-239,-181
258,126,-132,-192,195,-3,-279,-338,-281,-238,-239,-181
258,127,-131,-192,195,-2,-278,-338,-280,-238,-238,-180
258,127,-131,-192,195,-2,-278,-338,-280,-238,-237,-180
258,127,-131,-192,195,-2,-278,-337,-279,-237,-237,-179
258,128,-130,-193,194,-1,-278,-336,-279,-236,-236,-178
258,127,-131,-192,195,-2,-278,-337,-279,-236,-237,-178
258,126,-132,-192,195,-3,-278,-338,-280,-237,-237,-179
257,126,-131,-191,194,-2,-278,-338,-279,-237,-237,-179
257,126,-131,-191,194,-2,-279,-339,-280,-238,-238,-180
257,126,-131,-191,194,-2,-279,-339,-281,-238,-238,-180
257,126,-131,-191,194,-2,-279,-338,-281,-238,-238,-180
257,127,-130,-192,194,-1,-280,-338,-281,-239,-238,-180
257,127,-130,-192,194,-1,-279,-337,-280,-238,-237,-179
257,128,-129,-192,193,0,-278,-336,-280,-238,-236,-179
258,128,-130,-193,194,-1,-278,-336,-279,-238,-237,-179
258,127,-131,-192,195,-2,-278,-336,-279,-237,-237,-179
257,127,-130,-192,194,-1,-278,-337,-280,-237,-237,-179
256,127,-129,-191,193,-1,-276,-336,-279,-236,-235,-178
256,127,-129,-191,193,-1,-276,-336,-279,-236,-235,-178
256,128,-128,-192,192,0,-276,-337,-280,-237,-236,-179
256,128,-128,-192,192,0,-276,-337,-280,-237,-236,-179
256,128,-128,-192,192,0,-276,-336,-279,-237,-236,-178
257,129,-128,-193,193,1,-275,-335,-277,-236,-236,-178
257,129,-128,-193,193,1,-276,-335,-278,-236,-235,-178
257,129,-128,-193,193,1,-277,-335,-278,-236,-235,-178
257,128,-129,-192,193,0,-277,-335,-278,-236,-236,-178
257,128,-129,-192,193,0,-277,-335,-278,-236,-236,-178
257,128,-129,-192,193,0,-277,-336,-278,-236,-236,-178
257,128,-129,-192,193,0,-276,-336,-278,-236,-236,-178
257,128,-129,-192,193,0,-276,-337,-278,-236,-236,-178
257,128,-129,-192,193,0,-276,-336,-278,-237,-236,-178
256,128,-128,-192,192,0,-276,-336,-277,-237,-236,-179
255,128,-127,-191,191,1,-276,-334,-276,-235,-235,-177
256,128,-128,-192,192,0,-276,-334,-276,-235,-235,-178
257,129,-128,-193,193,1,-276,-333,-276,-234,-235,-177
"
		257","
		129","
		-128","
		-193","
		193","
		1","
		-275","
		-333","
		-276","
		-234","
		-234","
		-177"
257,129,-128,-193,193,1,-275,-334,-276,-234,-234,-177
257,129,-128,-193,193,1,-275,-335,-276,-234,-234,-177
256,129,-127,-192,192,1,-275,-336,-276,-234,-235,-178
256,129,-127,-192,192,1,-274,-334,-276,-235,-237,-179
257,128,-129,-192,193,0,-272,-329,-275,-237,-238,-181
257,127,-130,-192,194,-1,-268,-322,-274,-239,-240,-183
257,125,-132,-191,195,-3,-263,-315,-273,-241,-241,-185
256,124,-132,-190,194,-4,-259,-309,-272,-244,-243,-187
253,122,-131,-187,192,-4,-254,-304,-271,-246,-246,-189
254,119,-135,-186,195,-8,-247,-295,-266,-246,-248,-191
257,120,-137,-188,197,-8,-239,-281,-258,-246,-249,-192
260,125,-135,-192,198,-5,-234,-268,-247,-243,-247,-191
261,133,-128,-197,195,3,-231,-257,-231,-235,-240,-186
266,144,-122,-205,194,11,-229,-244,-210,-221,-230,-178
274,156,-118,-215,196,19,-223,-220,-181,-202,-217,-167
287,168,-119,-227,203,25,-215,-189,-146,-177,-202,-155
301,180,-121,-240,211,30,-207,-162,-108,-149,-185,-144
312,196,-116,-254,214,40,-204,-151,-74,-117,-165,-127
321,216,-105,-268,213,56,-208,-154,-46,-80,-139,-104
329,244,-85,-286,207,80,-219,-173,-28,-38,-109,-77
336,277,-59,-306,198,109,-240,-217,-27,7,-72,-45
339,310,-29,-324,184,141,-274,-295,-49,54,-31,-9
340,341,1,-340,170,171,-320,-396,-88,100,7,27
339,369,30,-354,155,200,-371,-496,-120,150,44,59
333,399,66,-366,134,233,-422,-587,-140,203,79,89
319,424,105,-371,107,265,-463,-667,-157,251,110,117
301,424,123,-362,89,274,-483,-729,-181,272,116,122
282,379,97,-330,93,238,-464,-747,-208,249,78,86
267,308,41,-287,113,175,-423,-726,-234,185,8,23
259,246,-13,-252,136,117,-404,-700,-261,114,-60,-34
255,205,-50,-230,153,78,-414,-678,-289,47,-111,-76
251,171,-80,-211,166,46,-430,-646,-329,-34,-157,-114
246,141,-105,-193,176,18,-437,-609,-384,-127,-202,-148
239,121,-118,-180,179,2,-436,-573,-437,-210,-234,-173
235,114,-121,-174,178,-3,-430,-532,-467,-273,-256,-189
238,113,-125,-175,182,-6,-422,-487,-459,-309,-269,-200
244,114,-130,-179,187,-8,-408,-448,-424,-313,-272,-203
248,116,-132,-182,190,-8,-385,-420,-387,-294,-266,-201
250,122,-128,-186,189,-3,-364,-401,-356,-270,-257,-195
253,132,-121,-192,187,6,-353,-387,-328,-251,-246,-186
256,141,-115,-198,186,13,-345,-377,-306,-236,-235,-177
258,148,-110,-203,184,19,-335,-369,-288,-221,-227,-171
260,151,-109,-205,185,21,-324,-361,-271,-212,-222,-167
262,151,-111,-206,187,20,-312,-352,-257,-205,-219,-165
264,150,-114,-207,189,18,-303,-343,-248,-202,-218,-165
266,148,-118,-207,192,15,-295,-335,-240,-199,-216,-164
267,145,-122,-206,195,12,-290,-329,-236,-198,-216,-165
266,142,-124,-204,195,9,-288,-325,-236,-199,-217,-165
266,141,-125,-203,196,8,-287,-322,-236,-199,-217,-165
266,141,-125,-203,196,8,-286,-321,-238,-199,-217,-165
266,141,-125,-203,196,8,-284,-320,-239,-202,-218,-166
265,140,-125,-202,195,8,-283,-319,-240,-204,-220,-168
264,139,-125,-201,195,7,-281,-318,-239,-205,-221,-168
264,138,-126,-201,195,6,-279,-317,-237,-206,-222,-169
265,138,-127,-201,196,6,-279,-317,-236,-206,-223,-169
265,139,-126,-202,196,7,-279,-316,-235,-207,-222,-170
266,139,-127,-202,197,6,-281,-316,-234,-207,-222,-171
268,140,-128,-204,198,6,-281,-315,-234,-207,-222,-171
269,141,-128,-205,199,7,-281,-313,-235,-205,-221,-169
267,140,-127,-203,197,7,-280,-312,-235,-204,-221,-169
266,139,-127,-202,197,6,-280,-313,-236,-205,-222,-170
266,140,-126,-203,196,7,-278,-313,-235,-206,-222,-170
267,140,-127,-203,197,7,-276,-312,-233,-205,-222,-170
267,140,-127,-203,197,7,-276,-312,-232,-206,-223,-170
268,140,-128,-204,198,6,-277,-313,-232,-208,-224,-171
268,141,-127,-204,198,7,-278,-312,-230,-206,-223,-171
268,141,-127,-204,198,7,-278,-310,-228,-204,-222,-170
268,142,-126,-205,197,8,-279,-310,-228,-204,-221,-169
268,142,-126,-205,197,8,-280,-310,-229,-203,-220,-168
268,142,-126,-205,197,8,-279,-310,-230,-202,-219,-168
268,143,-125,-205,197,9,-280,-311,-231,-203,-221,-168
267,142,-125,-204,196,9,-279,-310,-231,-202,-221,-169
267,141,-126,-204,197,8,-277,-309,-230,-203,-222,-170
268,141,-127,-204,198,7,-275,-308,-227,-202,-221,-170
269,142,-127,-205,198,8,-275,-307,-225,-203,-221,-170
269,142,-127,-205,198,8,-276,-307,-224,-202,-221,-170
269,142,-127,-205,198,8,-278,-307,-224,-201,-221,-169
269,142,-127,-205,198,8,-279,-306,-224,-200,-220,-169
269,142,-127,-205,198,8,-280,-306,-225,-198,-219,-168
270,142,-128,-206,199,7,-279,-306,-224,-197,-219,-167
269,143,-126,-206,198,9,-279,-305,-224,-197,-218,-167
269,144,-125,-206,197,10,-278,-305,-223,-197,-218,-167
268,144,-124,-206,196,10,-277,-305,-222,-197,-219,-168
268,144,-124,-206,196,10,-276,-305,-221,-197,-220,-169
269,144,-125,-206,197,10,-276,-305,-219,-197,-219,-169
270,144,-126,-207,198,9,-277,-305,-218,-196,-219,-169
270,145,-125,-207,198,10,-278,-304,-217,-194,-218,-168
271,146,-125,-208,198,11,-280,-304,-217,-194,-218,-167
271,146,-125,-208,198,11,-280,-303,-217,-193,-216,-165
271,147,-124,-209,198,12,-280,-303,-216,-192,-215,-166
271,147,-124,-209,198,12,-280,-303,-216,-191,-216,-166
270,148,-122,-209,196,13,-279,-303,-216,-191,-216,-167
270,148,-122,-209,196,13,-278,-303,-215,-191,-217,-167
269,147,-122,-208,196,13,-277,-301,-212,-190,-217,-166
270,148,-122,-209,196,13,-278,-302,-211,-190,-216,-167
271,149,-122,-210,197,14,-280,-302,-210,-190,-215,-167
271,149,-122,-210,197,14,-280,-302,-209,-188,-214,-166
272,149,-123,-210,198,13,-281,-301,-207,-186,-212,-164
273,151,-122,-212,198,15,-282,-300,-207,-184,-211,-163
273,152,-121,-212,197,16,-281,-298,-206,-181,-210,-162
274,152,-122,-213,198,15,-282,-300,-207,-183,-211,-163
274,152,-122,-213,198,15,-281,-301,-207,-183,-212,-163
274,152,-122,-213,198,15,-280,-301,-206,-183,-213,-164
274,152,-122,-213,198,15,-280,-300,-203,-183,-213,-164
275,153,-122,-214,199,16,-279,-298,-201,-182,-211,-163
276,155,-121,-215,199,17,-280,-298,-199,-180,-210,-162
277,155,-122,-216,200,17,-281,-298,-197,-178,-209,-161
277,156,-121,-216,199,18,-283,-297,-197,-177,-208,-160
277,156,-121,-216,199,18,-284,-297,-197,-176,-207,-159
276,155,-121,-215,199,17,-284,-297,-196,-174,-206,-158
276,155,-121,-215,199,17,-284,-297,-195,-173,-205,-158
276,156,-120,-216,198,18,-284,-298,-195,-173,-206,-159
276,156,-120,-216,198,18,-284,-297,-193,-173,-206,-159
277,157,-120,-217,199,19,-283,-296,-190,-172,-206,-158
278,158,-120,-218,199,19,-284,-295,-188,-171,-205,-158
279,160,-119,-219,199,21,-284,-294,-185,-169,-203,-157
281,161,-120,-221,201,21,-285,-293,-183,-166,-201,-155
282,162,-120,-222,201,21,-287,-292,-181,-164,-200,-153
281,162,-119,-221,200,22,-287,-291,-180,-161,-197,-150
282,162,-120,-222,201,21,-289,-291,-181,-160,-197,-151
283,162,-121,-222,202,21,-289,-291,-179,-158,-196,-150
283,162,-121,-222,202,21,-288,-290,-177,-156,-194,-149
284,163,-121,-223,203,21,-287,-290,-174,-155,-194,-149
286,165,-121,-225,204,22,-286,-289,-171,-153,-193,-148
288,167,-121,-227,205,23,-287,-287,-168,-152,-191,-148
288,168,-120,-228,204,24,-290,-288,-167,-151,-191,-149
287,168,-119,-227,203,25,-291,-287,-163,-147,-189,-147
289,169,-120,-229,205,25,-293,-286,-162,-144,-186,-145
292,172,-120,-232,206,26,-294,-285,-160,-140,-183,-142
293,174,-119,-233,206,28,-294,-284,-158,-136,-181,-140
294,175,-119,-234,207,28,-295,-283,-156,-134,-179,-138
295,176,-119,-235,207,29,-295,-283,-155,-132,-178,-137
296,177,-119,-236,208,29,-295,-282,-152,-129,-177,-136
297,178,-119,-237,208,30,-296,-282,-149,-127,-176,-136
299,180,-119,-239,209,31,-297,-281,-145,-125,-174,-135
300,182,-118,-241,209,32,-299,-280,-142,-120,-171,-133
301,183,-118,-242,210,33,-300,-279,-139,-116,-169,-130
303,185,-118,-244,211,34,-302,-279,-136,-111,-165,-127
305,187,-118,-246,212,35,-305,-278,-135,-107,-163,-125
307,189,-118,-248,213,36,-307,-277,-132,-103,-161,-123
309,190,-119,-249,214,36,-308,-277,-129,-98,-159,-121
311,192,-119,-251,215,37,-308,-277,-126,-95,-156,-119
311,193,-118,-252,215,38,-309,-278,-123,-92,-154,-117
312,195,-117,-253,215,39,-311,-278,-120,-89,-153,-117
314,198,-116,-256,215,41,-312,-277,-115,-85,-149,-114
316,201,-115,-258,216,43,-314,-276,-112,-80,-145,-111
319,204,-115,-261,217,45,-317,-277,-109,-75,-143,-108
320,207,-113,-263,217,47,-319,-277,-107,-70,-139,-105
321,208,-113,-264,217,48,-322,-277,-105,-65,-135,-102
323,210,-113,-266,218,49,-324,-277,-103,-60,-132,-99
325,212,-113,-268,219,50,-325,-278,-102,-57,-130,-97
326,214,-112,-270,219,51,-326,-278,-99,-53,-127,-95
328,217,-111,-272,220,53,-327,-279,-96,-50,-125,-93
330,218,-112,-274,221,53,-328,-280,-93,-46,-122,-91
331,220,-111,-275,221,55,-330,-281,-90,-43,-119,-89
333,223,-110,-278,222,57,-332,-283,-89,-40,-117,-87
334,226,-108,-280,221,59,-334,-283,-87,-36,-114,-84
336,228,-108,-282,222,60,-337,-285,-87,-32,-111,-83
337,229,-108,-283,223,61,-339,-286,-86,-28,-108,-80
337,230,-107,-283,222,62,-342,-289,-87,-26,-106,-78
336,230,-106,-283,221,62,-342,-290,-86,-23,-103,-75
336,231,-105,-283,221,63,-344,-292,-86,-22,-103,-74
336,232,-104,-284,220,64,-344,-293,-86,-20,-101,-73
336,234,-102,-285,219,66,-344,-295,-85,-21,-101,-72
336,236,-100,-286,218,68,-344,-295,-84,-20,-99,-71
335,237,-98,-286,217,70,-345,-296,-85,-20,-98,-71
334,237,-97,-285,216,70,-346,-298,-87,-21,-98,-70
333,237,-96,-285,215,71,-346,-300,-90,-22,-98,-70
332,238,-94,-285,213,72,-346,-301,-93,-24,-99,-70
331,237,-94,-284,213,72,-344,-302,-98,-27,-100,-70
328,235,-93,-281,211,71,-342,-302,-102,-32,-101,-71
325,233,-92,-279,209,71,-340,-303,-108,-38,-104,-74
322,230,-92,-276,207,69,-337,-303,-113,-45,-108,-77
319,228,-91,-273,205,69,-334,-303,-118,-53,-112,-81
316,226,-90,-271,203,68,-330,-303,-122,-61,-116,-84
313,224,-89,-268,201,68,-328,-303,-128,-68,-121,-88
311,221,-90,-266,201,66,-325,-302,-132,-74,-124,-91
308,218,-90,-263,199,64,-322,-302,-139,-81,-128,-94
305,214,-91,-259,198,62,-320,-303,-146,-89,-133,-98
301,209,-92,-255,197,59,-317,-303,-153,-96,-138,-102
297,204,-93,-250,195,56,-313,-303,-159,-104,-143,-106
294,200,-94,-247,194,53,-309,-303,-164,-111,-147,-110
292,197,-95,-244,194,51,-306,-305,-170,-120,-154,-116
290,194,-96,-242,193,49,-302,-305,-176,-128,-160,-120
288,191,-97,-239,193,47,-299,-305,-180,-135,-162,-123
286,188,-98,-237,192,45,-297,-305,-185,-141,-166,-127
283,185,-98,-234,191,44,-294,-306,-189,-146,-169,-130
281,181,-100,-231,191,41,-292,-307,-194,-152,-172,-133
278,177,-101,-227,190,38,-290,-308,-198,-155,-175,-135
276,173,-103,-224,190,35,-288,-309,-204,-161,-179,-138
273,169,-104,-221,189,33,-287,-310,-209,-167,-183,-141
271,165,-106,-218,189,30,-284,-311,-213,-172,-186,-143
270,163,-107,-216,189,28,-282,-312,-216,-176,-189,-144
271,162,-109,-216,190,27,-281,-314,-219,-181,-192,-148
270,159,-111,-214,191,24,-280,-314,-221,-185,-195,-151
268,157,-111,-212,190,23,-279,-314,-224,-187,-196,-152
267,155,-112,-211,190,22,-278,-314,-226,-189,-198,-154
267,154,-113,-210,190,21,-278,-316,-229,-192,-199,-155
266,153,-113,-209,190,20,-277,-316,-231,-193,-200,-156
266,151,-115,-208,191,18,-277,-318,-235,-196,-202,-158
264,149,-115,-206,190,17,-276,-318,-237,-198,-203,-159
263,147,-116,-205,190,16,-275,-318,-240,-200,-205,-160
262,146,-116,-204,189,15,-274,-320,-242,-203,-207,-162
261,145,-116,-203,189,15,-273,-319,-242,-204,-208,-163
261,144,-117,-202,189,14,-272,-319,-242,-206,-210,-164
261,144,-117,-202,189,14,-273,-320,-243,-207,-211,-165
261,144,-117,-202,189,14,-274,-321,-244,-208,-211,-165
261,144,-117,-202,189,14,-275,-321,-246,-208,-211,-166
261,143,-118,-202,190,13,-274,-320,-247,-208,-210,-165
260,141,-119,-200,190,11,-274,-321,-248,-208,-211,-165
259,140,-119,-199,189,11,-274,-322,-251,-210,-213,-166
259,140,-119,-199,189,11,-274,-323,-252,-211,-213,-167
259,140,-119,-199,189,11,-274,-323,-252,-212,-214,-167
259,140,-119,-199,189,11,-272,-323,-251,-212,-214,-168
260,140,-120,-200,190,10,-271,-322,-250,-212,-214,-168
260,141,-119,-200,190,11,-270,-321,-250,-213,-214,-168
260,140,-120,-200,190,10,-271,-321,-250,-213,-214,-168
259,139,-120,-199,190,10,-271,-321,-249,-212,-213,-167
259,139,-120,-199,190,10,-272,-322,-251,-212,-213,-167
258,139,-119,-198,189,10,-273,-323,-252,-212,-214,-167
259,139,-120,-199,190,10,-272,-323,-253,-212,-214,-168
260,140,-120,-200,190,10,-272,-323,-254,-213,-215,-169
259,139,-120,-199,190,10,-271,-322,-253,-212,-215,-168
258,138,-120,-198,189,9,-271,-322,-253,-213,-215,-168
258,139,-119,-198,189,10,-270,-321,-252,-213,-215,-169
258,140,-118,-199,188,11,-270,-320,-251,-213,-214,-169
258,139,-119,-198,189,10,-271,-321,-250,-212,-214,-169
257,139,-118,-198,188,11,-272,-321,-250,-212,-214,-169
257,140,-117,-198,187,12,-272,-321,-251,-211,-213,-168
258,140,-118,-199,188,11,-272,-322,-252,-210,-213,-168
257,139,-118,-198,188,11,-272,-322,-253,-211,-214,-168
257,138,-119,-197,188,10,-271,-321,-252,-211,-214,-167
257,138,-119,-197,188,10,-270,-321,-252,-211,-214,-168
257,139,-118,-198,188,11,-270,-321,-252,-212,-215,-169
258,139,-119,-198,189,10,-271,-321,-250,-212,-214,-169
257,139,-118,-198,188,11,-271,-320,-249,-212,-214,-169
257,140,-117,-198,187,12,-271,-320,-249,-211,-213,-168
258,140,-118,-199,188,11,-271,-319,-249,-210,-212,-168
259,140,-119,-199,189,11,-272,-320,-251,-210,-212,-168
259,140,-119,-199,189,11,-273,-321,-251,-210,-212,-167
259,140,-119,-199,189,11,-273,-321,-251,-210,-212,-167
259,140,-119,-199,189,11,-272,-321,-252,-210,-212,-167
259,140,-119,-199,189,11,-271,-320,-252,-211,-214,-168
259,141,-118,-200,189,12,-272,-321,-252,-212,-215,-170
259,141,-118,-200,189,12,-273,-321,-251,-212,-215,-171
258,141,-117,-199,188,12,-272,-320,-249,-212,-214,-170
258,141,-117,-199,188,12,-272,-319,-248,-210,-213,-169
258,141,-117,-199,188,12,-272,-317,-248,-209,-211,-167
258,142,-116,-200,187,13,-272,-316,-248,-207,-210,-166
259,142,-117,-200,188,13,-272,-317,-249,-207,-211,-166
258,141,-117,-199,188,12,-273,-318,-250,-208,-212,-166
258,141,-117,-199,188,12,-273,-319,-251,-209,-212,-167
258,141,-117,-199,188,12,-272,-319,-251,-210,-212,-167
258,141,-117,-199,188,12,-272,-319,-250,-210,-212,-167
259,141,-118,-200,189,12,-271,-319,-249,-210,-212,-168
259,141,-118,-200,189,12,-271,-318,-248,-210,-212,-168
259,142,-117,-200,188,13,-272,-318,-247,-209,-212,-168
259,142,-117,-200,188,13,-271,-318,-248,-209,-212,-168
259,142,-117,-200,188,13,-271,-318,-249,-209,-211,-167
259,142,-117,-200,188,13,-272,-318,-250,-209,-211,-168
258,142,-116,-200,187,13,-273,-319,-252,-210,-212,-168
258,141,-117,-199,188,12,-274,-319,-252,-211,-214,-168
257,141,-116,-199,187,13,-272,-319,-252,-211,-214,-167
257,141,-116,-199,187,13,-271,-319,-251,-211,-214,-167
258,142,-116,-200,187,13,-272,-320,-252,-212,-215,-168
259,143,-116,-201,188,14,-272,-320,-251,-213,-215,-169
259,144,-115,-201,187,15,-272,-319,-250,-212,-214,-168
258,144,-114,-201,186,15,-273,-319,-251,-212,-213,-168
257,143,-114,-200,186,15,-273,-319,-252,-211,-212,-167
257,142,-115,-199,186,14,-274,-320,-253,-212,-212,-167
257,142,-115,-199,186,14,-275,-322,-255,-212,-213,-167
257,142,-115,-199,186,14,-274,-322,-256,-213,-213,-168
257,144,-113,-200,185,16,-273,-321,-255,-213,-213,-167
258,145,-113,-201,186,16,-272,-321,-254,-214,-213,-168
258,145,-113,-201,186,16,-272,-321,-253,-214,-213,-168
258,144,-114,-201,186,15,-273,-321,-254,-215,-214,-168
257,143,-114,-200,186,15,-273,-321,-254,-214,-213,-167
258,143,-115,-200,187,14,-273,-321,-254,-213,-212,-167
258,143,-115,-200,187,14,-273,-321,-254,-213,-212,-166
258,143,-115,-200,187,14,-273,-321,-255,-213,-212,-166
258,143,-115,-200,187,14,-273,-321,-256,-214,-212,-166
257,141,-116,-199,187,13,-274,-321,-257,-215,-211,-165
256,140,-116,-198,186,12,-275,-323,-258,-216,-213,-167
255,140,-115,-197,185,13,-274,-322,-257,-216,-213,-167
256,142,-114,-199,185,14,-274,-323,-256,-217,-213,-167
256,142,-114,-199,185,14,-274,-322,-256,-217,-213,-167
256,141,-115,-198,186,13,-274,-323,-255,-216,-212,-167
256,141,-115,-198,186,13,-273,-322,-255,-215,-212,-166
257,140,-117,-198,187,12,-273,-321,-256,-215,-211,-166
257,139,-118,-198,188,11,-274,-323,-258,-216,-212,-167
256,138,-118,-197,187,10,-273,-323,-258,-216,-212,-166
257,140,-117,-198,187,12,-273,-323,-259,-217,-213,-166
258,141,-117,-199,188,12,-272,-323,-259,-216,-213,-166
258,142,-116,-200,187,13,-272,-324,-258,-216,-213,-166
258,142,-116,-200,187,13,-273,-324,-258,-218,-213,-167
258,142,-116,-200,187,13,-273,-324,-258,-218,-214,-167
259,142,-117,-200,188,13,-274,-324,-258,-218,-214,-167
259,142,-117,-200,188,13,-274,-325,-259,-217,-214,-167
258,141,-117,-199,188,12,-275,-325,-260,-217,-214,-167
"
		257","
		141","
		-116","
		-199","
		187","
		13","
		-274","
		-325","
		-260","
		-216","
		-213","
		-166"
257,141,-116,-199,187,13,-274,-326,-260,-217,-213,-167
257,141,-116,-199,187,13,-274,-326,-261,-218,-214,-167
257,140,-117,-198,187,12,-274,-327,-261,-218,-214,-168
257,140,-117,-198,187,12,-274,-327,-262,-219,-215,-168
256,139,-117,-197,187,11,-274,-326,-260,-218,-215,-167
256,139,-117,-197,187,11,-273,-326,-260,-218,-215,-167
256,139,-117,-197,187,11,-273,-325,-259,-216,-214,-167
257,139,-118,-198,188,11,-274,-325,-259,-216,-214,-167
257,140,-117,-198,187,12,-275,-325,-260,-217,-214,-167
257,139,-118,-198,188,11,-275,-326,-262,-218,-215,-169
256,139,-117,-197,187,11,-273,-326,-262,-218,-216,-169
256,139,-117,-197,187,11,-273,-326,-263,-219,-216,-170
256,140,-116,-198,186,12,-273,-327,-264,-221,-218,-171
257,140,-117,-198,187,12,-273,-327,-264,-221,-218,-172
257,140,-117,-198,187,12,-274,-327,-263,-220,-218,-172
257,139,-118,-198,188,11,-274,-327,-262,-219,-218,-172
256,139,-117,-197,187,11,-274,-326,-261,-218,-217,-171
256,138,-118,-197,187,10,-275,-327,-261,-219,-217,-170
255,138,-117,-196,186,11,-275,-327,-262,-219,-217,-170
255,137,-118,-196,187,10,-273,-326,-262,-218,-216,-168
255,138,-117,-196,186,11,-274,-327,-264,-219,-217,-169
255,138,-117,-196,186,11,-274,-327,-264,-219,-218,-168
255,136,-119,-195,187,9,-274,-327,-263,-219,-218,-168
255,135,-120,-195,188,8,-274,-327,-263,-219,-218,-169
255,136,-119,-195,187,9,-273,-326,-262,-218,-218,-168
255,136,-119,-195,187,9,-273,-326,-261,-217,-217,-168
255,135,-120,-195,188,8,-273,-326,-261,-218,-217,-168
255,134,-121,-194,188,7,-272,-325,-260,-216,-216,-167
255,134,-121,-194,188,7,-273,-324,-261,-216,-216,-167
255,133,-122,-194,189,6,-274,-325,-263,-217,-218,-168
253,132,-121,-192,187,6,-275,-326,-264,-218,-218,-169
252,132,-120,-192,186,6,-275,-327,-264,-220,-219,-170
252,132,-120,-192,186,6,-275,-328,-265,-221,-219,-171
252,132,-120,-192,186,6,-274,-328,-265,-221,-220,-171
252,133,-119,-192,186,7,-273,-328,-265,-221,-221,-172
252,133,-119,-192,186,7,-272,-326,-263,-220,-220,-171
254,134,-120,-194,187,7,-273,-326,-262,-219,-219,-170
256,136,-120,-196,188,8,-273,-325,-261,-217,-218,-169
256,137,-119,-196,188,9,-273,-325,-263,-218,-217,-169
255,138,-117,-196,186,11,-273,-326,-264,-218,-219,-170
255,138,-117,-196,186,11,-274,-327,-264,-219,-220,-170
255,137,-118,-196,187,10,-273,-326,-264,-219,-220,-169
254,137,-117,-195,186,10,-273,-327,-265,-220,-220,-170
254,136,-118,-195,186,9,-273,-328,-265,-220,-221,-171
254,136,-118,-195,186,9,-274,-327,-264,-220,-221,-172
254,136,-118,-195,186,9,-274,-326,-263,-220,-221,-172
254,137,-117,-195,186,10,-274,-326,-262,-219,-220,-171
255,138,-117,-196,186,11,-274,-326,-262,-219,-221,-171
256,139,-117,-197,187,11,-273,-325,-262,-218,-220,-170
256,139,-117,-197,187,11,-272,-325,-263,-217,-220,-170
256,140,-116,-198,186,12,-273,-327,-264,-219,-221,-172
255,140,-115,-197,185,13,-272,-326,-263,-219,-221,-171
255,141,-114,-198,185,14,-273,-326,-264,-220,-222,-172
257,142,-115,-199,186,14,-272,-326,-262,-220,-222,-173
258,143,-115,-200,187,14,-270,-323,-259,-218,-221,-171
259,144,-115,-201,187,15,-269,-321,-258,-217,-220,-171
259,145,-114,-202,187,16,-268,-320,-256,-215,-219,-170
260,146,-114,-203,187,16,-268,-319,-256,-214,-219,-169
260,146,-114,-203,187,16,-266,-317,-256,-213,-218,-168
261,146,-115,-203,188,16,-267,-318,-256,-213,-217,-168
261,145,-116,-203,189,15,-268,-319,-257,-213,-218,-168
261,144,-117,-202,189,14,-268,-321,-258,-214,-219,-168
261,143,-118,-202,190,13,-268,-322,-258,-214,-218,-168
260,143,-117,-201,189,13,-267,-322,-257,-215,-218,-169
259,144,-115,-201,187,15,-264,-321,-256,-214,-218,-168
260,144,-116,-202,188,14,-261,-319,-254,-212,-217,-167
261,143,-118,-202,190,13,-262,-318,-253,-211,-217,-167
261,144,-117,-202,189,14,-263,-318,-252,-210,-217,-167
262,147,-115,-204,189,16,-262,-316,-250,-208,-215,-166
263,150,-113,-206,188,19,-260,-314,-248,-206,-213,-164
263,152,-111,-207,187,21,-259,-314,-246,-206,-213,-163
262,153,-109,-207,186,22,-258,-313,-245,-205,-213,-162
262,152,-110,-207,186,21,-258,-314,-246,-206,-215,-164
262,151,-111,-206,187,20,-257,-314,-246,-207,-216,-165
263,152,-111,-207,187,21,-259,-315,-245,-207,-216,-165
267,155,-112,-211,190,22,-263,-317,-245,-205,-214,-163
268,155,-113,-211,191,21,-269,-320,-247,-206,-214,-163
267,151,-116,-209,192,18,-276,-323,-249,-207,-215,-164
267,146,-121,-206,194,13,-279,-326,-252,-209,-217,-165
267,142,-125,-204,196,9,-279,-326,-254,-211,-219,-167
266,140,-126,-203,196,7,-277,-326,-256,-212,-220,-168
265,139,-126,-202,196,7,-277,-327,-257,-214,-221,-169
264,137,-127,-200,196,5,-277,-328,-258,-215,-221,-170
263,136,-127,-199,195,5,-277,-329,-260,-217,-223,-172
263,136,-127,-199,195,5,-276,-329,-261,-219,-224,-173
262,135,-127,-198,195,4,-275,-329,-261,-219,-225,-173
261,135,-126,-198,194,5,-276,-329,-262,-220,-225,-173
259,135,-124,-197,192,6,-275,-328,-261,-218,-224,-172
258,135,-123,-196,191,6,-274,-328,-262,-218,-224,-172
257,135,-122,-196,190,7,-272,-328,-263,-217,-224,-171
257,133,-124,-195,191,5,-271,-328,-265,-220,-226,-173
257,131,-126,-194,192,3,-271,-328,-266,-222,-228,-176
253,129,-124,-191,189,3,-270,-327,-266,-223,-229,-177
252,129,-123,-190,188,3,-269,-328,-266,-224,-230,-178
252,128,-124,-190,188,2,-268,-328,-264,-223,-230,-177
251,127,-124,-189,188,2,-269,-330,-265,-223,-231,-178
249,126,-123,-187,186,2,-269,-330,-265,-223,-231,-178
249,126,-123,-187,186,2,-270,-330,-266,-223,-231,-178
249,126,-123,-187,186,2,-270,-329,-266,-222,-231,-177
248,126,-122,-187,185,2,-269,-329,-266,-221,-230,-177
247,126,-121,-186,184,3,-270,-330,-266,-222,-230,-177
247,126,-121,-186,184,3,-270,-330,-267,-222,-230,-178
247,126,-121,-186,184,3,-271,-330,-266,-222,-230,-178
247,127,-120,-187,184,4,-270,-330,-266,-223,-230,-177
248,127,-121,-187,185,3,-271,-330,-266,-223,-231,-178
249,128,-121,-188,185,4,-271,-330,-265,-223,-231,-177
248,128,-120,-188,184,4,-271,-330,-266,-224,-231,-178
247,128,-119,-187,183,5,-272,-331,-267,-224,-232,-178
247,128,-119,-187,183,5,-272,-331,-267,-223,-231,-177
248,129,-119,-188,184,5,-271,-331,-267,-222,-230,-176
248,129,-119,-188,184,5,-271,-330,-267,-222,-230,-176
247,129,-118,-188,183,6,-272,-330,-268,-222,-230,-176
247,128,-119,-187,183,5,-272,-331,-268,-223,-230,-176
248,129,-119,-188,184,5,-271,-330,-266,-223,-231,-176
249,130,-119,-189,184,6,-271,-330,-267,-223,-232,-177
249,129,-120,-189,185,5,-271,-330,-267,-224,-232,-177
248,127,-121,-187,185,3,-270,-329,-266,-223,-232,-178
248,128,-120,-188,184,4,-271,-330,-266,-222,-232,-178
248,128,-120,-188,184,4,-271,-330,-266,-221,-231,-178
248,128,-120,-188,184,4,-271,-330,-266,-222,-230,-177
248,128,-120,-188,184,4,-271,-330,-267,-223,-231,-178
248,128,-120,-188,184,4,-271,-330,-267,-222,-231,-178
248,129,-119,-188,184,5,-271,-329,-266,-221,-230,-176
249,130,-119,-189,184,6,-271,-329,-265,-221,-230,-175
249,130,-119,-189,184,6,-270,-328,-264,-220,-230,-174
249,130,-119,-189,184,6,-271,-329,-265,-221,-230,-175
248,130,-118,-189,183,6,-271,-329,-265,-222,-230,-176
249,130,-119,-189,184,6,-271,-328,-265,-222,-229,-176
250,129,-121,-189,186,4,-271,-327,-265,-220,-228,-176
248,129,-119,-188,184,5,-271,-328,-265,-218,-227,-175
245,128,-117,-186,181,6,-271,-329,-265,-219,-228,-175
245,128,-117,-186,181,6,-272,-329,-265,-221,-229,-175
247,128,-119,-187,183,5,-272,-330,-266,-222,-230,-176
247,128,-119,-187,183,5,-271,-330,-265,-221,-230,-175
246,129,-117,-187,182,6,-271,-329,-265,-221,-230,-175
245,129,-116,-187,181,7,-270,-328,-264,-220,-229,-175
246,129,-117,-187,182,6,-272,-328,-264,-221,-230,-176
247,129,-118,-188,183,6,-272,-328,-264,-220,-229,-176
248,130,-118,-189,183,6,-273,-328,-265,-220,-230,-177
249,130,-119,-189,184,6,-273,-328,-264,-219,-229,-176
249,129,-120,-189,185,5,-273,-329,-265,-220,-230,-176
247,128,-119,-187,183,5,-272,-330,-265,-220,-230,-175
247,128,-119,-187,183,5,-272,-330,-264,-220,-230,-175
247,128,-119,-187,183,5,-272,-329,-263,-220,-230,-175
248,129,-119,-188,184,5,-271,-328,-263,-219,-229,-175
249,129,-120,-189,185,5,-272,-328,-263,-219,-230,-176
249,129,-120,-189,185,5,-271,-327,-262,-219,-229,-175
249,129,-120,-189,185,5,-271,-327,-263,-218,-229,-175
248,129,-119,-188,184,5,-271,-327,-262,-217,-228,-174
247,129,-118,-188,183,6,-271,-327,-263,-217,-228,-174
247,129,-118,-188,183,6,-271,-328,-263,-217,-228,-174
248,129,-119,-188,184,5,-271,-328,-263,-217,-229,-173
248,130,-118,-189,183,6,-271,-329,-264,-218,-230,-174
248,130,-118,-189,183,6,-271,-329,-263,-218,-230,-174
247,131,-116,-189,182,8,-271,-329,-263,-218,-230,-174
247,131,-116,-189,182,8,-270,-329,-262,-217,-229,-174
247,130,-117,-188,182,7,-269,-327,-261,-216,-227,-173
248,129,-119,-188,184,5,-269,-327,-262,-216,-227,-173
248,128,-120,-188,184,4,-269,-327,-262,-216,-228,-173
249,129,-120,-189,185,5,-270,-328,-263,-217,-228,-174
249,129,-120,-189,185,5,-269,-327,-263,-216,-228,-173
249,130,-119,-189,184,6,-269,-327,-262,-215,-228,-172
249,130,-119,-189,184,6,-269,-327,-261,-215,-227,-171
250,130,-120,-190,185,5,-268,-326,-260,-214,-227,-171
251,130,-121,-190,186,5,-269,-326,-260,-215,-227,-172
250,131,-119,-190,185,6,-269,-326,-259,-214,-227,-172
249,131,-118,-190,184,7,-268,-326,-258,-214,-226,-172
248,130,-118,-189,183,6,-269,-326,-260,-215,-227,-173
247,129,-118,-188,183,6,-270,-326,-261,-215,-227,-172
245,127,-118,-186,182,5,-269,-327,-261,-215,-227,-172
243,125,-118,-184,181,4,-268,-325,-261,-214,-226,-171
243,125,-118,-184,181,4,-268,-326,-262,-214,-227,-172
244,125,-119,-184,182,3,-269,-327,-262,-215,-228,-172
245,126,-119,-185,182,4,-268,-326,-261,-214,-228,-172
247,127,-120,-187,184,4,-267,-325,-260,-213,-227,-171
250,128,-122,-189,186,3,-267,-325,-259,-213,-227,-172
251,128,-123,-189,187,3,-267,-325,-258,-213,-227,-172
250,128,-122,-189,186,3,-268,-325,-259,-213,-227,-172
248,127,-121,-187,185,3,-268,-324,-258,-213,-226,-171
246,126,-120,-186,183,3,-267,-323,-258,-212,-225,-170
243,125,-118,-184,181,4,-266,-323,-258,-211,-225,-170
239,124,-115,-181,177,5,-266,-324,-258,-212,-227,-171
236,123,-113,-179,175,5,-265,-323,-257,-213,-226,-170
236,123,-113,-179,175,5,-265,-323,-258,-214,-227,-171
236,123,-113,-179,175,5,-264,-323,-258,-213,-227,-171
239,125,-114,-182,177,6,-265,-323,-257,-213,-227,-171
245,129,-116,-187,181,7,-265,-323,-256,-211,-226,-170
250,132,-118,-191,184,7,-266,-323,-256,-210,-225,-170
251,131,-120,-191,186,6,-267,-324,-256,-210,-224,-170
251,129,-122,-190,187,4,-267,-324,-256,-209,-225,-169
252,129,-123,-190,188,3,-268,-326,-257,-209,-225,-170
252,130,-122,-191,187,4,-267,-326,-256,-208,-224,-169
252,130,-122,-191,187,4,-266,-326,-256,-208,-225,-170
250,129,-121,-189,186,4,-266,-326,-256,-209,-226,-170
249,129,-120,-189,185,5,-268,-327,-257,-210,-227,-172
249,129,-120,-189,185,5,-268,-327,-257,-211,-228,-173
249,130,-119,-189,184,6,-268,-326,-256,-210,-227,-172
250,131,-119,-190,185,6,-267,-324,-256,-210,-226,-171
250,132,-118,-191,184,7,-266,-321,-254,-209,-226,-170
249,130,-119,-189,184,6,-262,-317,-253,-210,-227,-171
247,127,-120,-187,184,4,-257,-311,-252,-211,-229,-173
246,125,-121,-185,184,2,-252,-305,-251,-213,-232,-175
246,124,-122,-185,184,1,-248,-300,-250,-216,-236,-178
246,123,-123,-184,185,0,-244,-295,-247,-219,-238,-181
246,123,-123,-184,185,0,-238,-286,-242,-220,-241,-183
247,122,-125,-184,186,-1,-233,-274,-235,-220,-241,-185
249,125,-124,-187,187,1,-227,-261,-223,-215,-238,-182
252,135,-117,-193,185,9,-226,-251,-206,-206,-230,-176
257,147,-110,-202,184,19,-223,-238,-183,-190,-218,-166
265,159,-106,-212,186,27,-220,-218,-154,-169,-205,-155
277,171,-106,-224,192,33,-214,-189,-116,-142,-189,-144
289,185,-104,-237,197,41,-207,-159,-72,-109,-170,-129
299,202,-97,-250,198,53,-204,-143,-31,-74,-148,-112
308,225,-83,-266,196,71,-209,-145,2,-35,-121,-89
317,254,-63,-285,190,96,-223,-163,23,9,-89,-61
326,286,-40,-306,183,123,-245,-199,25,56,-52,-29
330,318,-12,-324,171,153,-274,-262,1,105,-14,5
330,346,16,-338,157,181,-311,-348,-41,153,22,38
327,371,44,-349,142,208,-353,-441,-82,202,56,68
317,398,81,-357,118,240,-399,-530,-113,254,90,97
303,421,118,-362,93,270,-439,-607,-134,300,119,122
289,417,128,-353,81,273,-456,-657,-157,320,121,122
273,368,95,-320,89,232,-436,-670,-187,290,76,80
257,292,35,-274,111,164,-397,-662,-227,216,-1,12
246,232,-14,-239,130,109,-374,-654,-268,139,-68,-44
239,197,-42,-218,141,78,-377,-647,-304,69,-116,-82
232,168,-64,-200,148,52,-385,-625,-347,-16,-161,-117
223,138,-85,-180,154,27,-387,-593,-404,-116,-204,-148
214,117,-97,-165,156,10,-389,-562,-461,-206,-236,-171
210,109,-101,-159,156,4,-388,-525,-488,-272,-258,-188
215,109,-106,-162,161,2,-386,-480,-471,-303,-270,-197
226,112,-114,-169,170,-1,-381,-439,-428,-300,-271,-199
232,116,-116,-174,174,0,-367,-411,-387,-277,-266,-198
235,120,-115,-177,175,3,-347,-390,-352,-253,-257,-192
240,128,-112,-184,176,8,-335,-376,-322,-234,-246,-184
246,139,-107,-192,177,16,-330,-366,-298,-217,-235,-175
249,148,-101,-198,175,24,-322,-356,-276,-201,-226,-168
251,152,-99,-201,175,27,-313,-348,-257,-189,-218,-162
253,152,-101,-202,177,26,-305,-343,-242,-181,-214,-160
254,151,-103,-202,179,24,-296,-337,-232,-175,-212,-158
255,149,-106,-202,181,22,-288,-330,-225,-172,-210,-157
255,147,-108,-201,182,20,-285,-327,-222,-172,-211,-158
256,145,-111,-200,184,17,-281,-322,-219,-172,-210,-158
256,145,-111,-200,184,17,-278,-318,-218,-172,-210,-158
256,144,-112,-200,184,16,-276,-315,-218,-173,-212,-158
256,144,-112,-200,184,16,-275,-313,-218,-174,-212,-159
258,145,-113,-201,186,16,-275,-312,-219,-176,-213,-160
257,143,-114,-200,186,15,-273,-309,-218,-177,-214,-161
256,141,-115,-198,186,13,-272,-309,-217,-178,-216,-162
256,141,-115,-198,186,13,-272,-311,-217,-179,-216,-162
256,141,-115,-198,186,13,-272,-311,-216,-179,-216,-162
256,141,-115,-198,186,13,-272,-311,-214,-178,-216,-162
256,142,-114,-199,185,14,-272,-310,-214,-177,-215,-161
256,143,-113,-199,185,15,-273,-310,-214,-176,-215,-161
257,144,-113,-200,185,16,-272,-307,-213,-176,-214,-161
259,144,-115,-201,187,15,-272,-306,-213,-176,-214,-162
261,143,-118,-202,190,13,-271,-304,-213,-176,-214,-161
260,142,-118,-201,189,12,-271,-304,-212,-177,-216,-162
259,140,-119,-199,189,11,-270,-304,-211,-177,-217,-162
257,139,-118,-198,188,11,-270,-304,-210,-176,-216,-161
257,139,-118,-198,188,11,-270,-304,-209,-175,-215,-161
257,140,-117,-198,187,12,-270,-305,-208,-174,-214,-160
257,142,-115,-199,186,14,-271,-307,-208,-174,-214,-160
259,143,-116,-201,188,14,-272,-306,-209,-174,-213,-160
260,145,-115,-202,188,15,-272,-305,-209,-173,-213,-160
260,145,-115,-202,188,15,-270,-303,-208,-172,-213,-159
260,145,-115,-202,188,15,-269,-302,-207,-172,-212,-159
260,144,-116,-202,188,14,-269,-301,-206,-172,-213,-160
259,142,-117,-200,188,13,-269,-302,-205,-172,-213,-160
259,141,-118,-200,189,12,-269,-303,-205,-173,-214,-161
259,141,-118,-200,189,12,-270,-304,-204,-172,-214,-160
259,142,-117,-200,188,13,-270,-304,-203,-170,-213,-159
260,144,-116,-202,188,14,-271,-304,-203,-169,-212,-159
261,144,-117,-202,189,14,-271,-304,-203,-168,-211,-158
262,143,-119,-202,191,12,-270,-303,-203,-167,-210,-157
262,143,-119,-202,191,12,-269,-300,-201,-166,-210,-157
263,144,-119,-203,191,13,-267,-298,-200,-165,-209,-156
263,143,-120,-203,192,12,-268,-298,-200,-166,-209,-157
263,141,-122,-202,193,10,-268,-298,-198,-165,-209,-156
262,142,-120,-202,191,11,-268,-299,-198,-165,-209,-156
262,143,-119,-202,191,12,-269,-301,-198,-165,-210,-157
262,144,-118,-203,190,13,-270,-301,-197,-164,-209,-156
262,145,-117,-203,190,14,-270,-301,-196,-163,-208,-155
262,146,-116,-204,189,15,-272,-301,-196,-162,-207,-155
261,147,-114,-204,188,17,-272,-300,-195,-160,-207,-155
261,147,-114,-204,188,17,-272,-298,-194,-160,-207,-155
262,147,-115,-204,189,16,-272,-297,-193,-160,-207,-155
263,147,-116,-205,190,16,-271,-296,-191,-159,-206,-154
264,148,-116,-206,190,16,-271,-296,-190,-160,-207,-155
263,148,-115,-205,189,17,-272,-297,-189,-159,-207,-155
261,147,-114,-204,188,17,-273,-298,-189,-158,-207,-154
262,147,-115,-204,189,16,-274,-299,-188,-158,-207,-154
264,147,-117,-205,191,15,-276,-301,-188,-157,-206,-154
265,149,-116,-207,191,17,-276,-301,-188,-156,-204,-154
266,150,-116,-208,191,17,-275,-299,-186,-154,-203,-152
267,152,-115,-209,191,19,-274,-297,-185,-153,-202,-151
268,153,-115,-210,192,19,-273,-295,-183,-152,-202,-151
269,154,-115,-211,192,20,-274,-295,-182,-152,-202,-151
269,153,-116,-211,193,19,-273,-294,-180,-151,-201,-150
"
		269","
		153","
		-116","
		-211","
		193","
		19","
		-274","
		-294","
		-179","
		-150","
		-201","
		-149"
268,154,-114,-211,191,20,-274,-295,-178,-149,-200,-149
267,153,-114,-210,191,20,-275,-297,-177,-149,-199,-149
266,153,-113,-209,190,20,-275,-297,-175,-146,-198,-148
268,155,-113,-211,191,21,-277,-298,-175,-145,-198,-148
270,157,-113,-213,192,22,-278,-296,-174,-143,-196,-147
272,158,-114,-215,193,22,-278,-294,-172,-143,-196,-146
273,158,-115,-215,194,22,-277,-292,-170,-141,-195,-145
273,158,-115,-215,194,22,-277,-292,-169,-141,-194,-145
272,158,-114,-215,193,22,-277,-292,-168,-140,-194,-145
272,158,-114,-215,193,22,-278,-292,-166,-139,-193,-144
272,159,-113,-215,193,23,-278,-293,-164,-137,-192,-143
271,160,-111,-215,191,25,-279,-292,-162,-135,-190,-142
271,161,-110,-216,191,26,-280,-292,-161,-133,-190,-142
273,162,-111,-217,192,26,-281,-292,-160,-131,-188,-141
274,164,-110,-219,192,27,-282,-292,-159,-129,-187,-140
275,164,-111,-219,193,27,-282,-291,-157,-127,-186,-139
276,165,-111,-220,194,27,-282,-289,-156,-126,-186,-139
277,166,-111,-221,194,28,-280,-287,-152,-123,-183,-138
278,166,-112,-222,195,27,-282,-287,-150,-122,-183,-137
279,166,-113,-222,196,27,-283,-288,-148,-119,-182,-135
279,167,-112,-223,196,28,-283,-288,-145,-117,-180,-134
280,169,-111,-224,196,29,-283,-288,-143,-114,-178,-133
282,171,-111,-226,197,30,-286,-288,-142,-112,-177,-132
283,173,-110,-228,197,32,-288,-288,-140,-108,-175,-130
284,174,-110,-229,197,32,-289,-287,-137,-105,-173,-128
285,175,-110,-230,198,33,-290,-286,-134,-102,-171,-127
287,177,-110,-232,199,34,-290,-284,-132,-100,-169,-126
289,177,-112,-233,201,33,-291,-283,-129,-98,-168,-125
288,177,-111,-232,200,33,-291,-283,-126,-95,-167,-124
287,177,-110,-232,199,34,-292,-282,-122,-89,-164,-121
289,178,-111,-233,200,34,-294,-283,-119,-85,-161,-119
292,180,-112,-236,202,34,-296,-283,-116,-81,-158,-117
294,183,-111,-238,203,36,-297,-283,-114,-77,-156,-115
296,186,-110,-241,203,38,-298,-281,-110,-71,-153,-113
299,189,-110,-244,205,40,-300,-281,-108,-67,-151,-111
301,191,-110,-246,206,41,-302,-280,-105,-63,-149,-109
302,193,-109,-247,206,42,-304,-278,-102,-59,-146,-107
303,193,-110,-248,207,42,-304,-278,-98,-55,-143,-105
304,194,-110,-249,207,42,-306,-279,-95,-51,-142,-104
305,196,-109,-250,207,44,-308,-279,-92,-47,-140,-102
307,198,-109,-252,208,45,-310,-280,-88,-42,-135,-98
310,201,-109,-255,210,46,-312,-281,-84,-37,-131,-95
312,205,-107,-258,210,49,-314,-282,-82,-32,-128,-93
312,207,-105,-259,209,51,-316,-282,-80,-27,-124,-90
313,209,-104,-261,209,53,-318,-281,-78,-23,-121,-87
316,211,-105,-263,211,53,-319,-281,-74,-18,-118,-84
319,214,-105,-266,212,55,-322,-281,-72,-13,-116,-82
321,215,-106,-268,214,55,-323,-281,-68,-9,-113,-80
322,216,-106,-269,214,55,-325,-283,-65,-5,-110,-79
323,219,-104,-271,214,58,-326,-285,-62,-1,-108,-76
324,221,-103,-272,214,59,-328,-286,-60,3,-104,-73
325,223,-102,-274,214,61,-330,-288,-58,8,-101,-70
325,225,-100,-275,213,63,-333,-289,-57,12,-98,-68
325,227,-98,-276,212,65,-335,-291,-57,15,-96,-66
326,228,-98,-277,212,65,-336,-292,-56,18,-94,-65
328,229,-99,-278,214,65,-338,-293,-55,21,-91,-63
329,231,-98,-280,214,67,-339,-294,-54,23,-89,-60
330,233,-97,-281,214,68,-340,-295,-54,25,-88,-59
330,234,-96,-282,213,69,-341,-298,-55,25,-88,-59
328,234,-94,-281,211,70,-342,-299,-55,25,-87,-58
326,233,-93,-279,210,70,-343,-301,-57,24,-86,-57
324,233,-91,-278,208,71,-343,-303,-58,24,-85,-56
322,234,-88,-278,205,73,-343,-304,-61,22,-86,-56
321,236,-85,-278,203,76,-342,-304,-64,20,-86,-56
321,236,-85,-278,203,76,-340,-304,-68,16,-87,-57
318,235,-83,-276,201,76,-338,-304,-73,10,-89,-59
314,233,-81,-273,198,76,-336,-303,-78,4,-92,-61
312,230,-82,-271,197,74,-332,-302,-83,-3,-95,-63
310,228,-82,-269,196,73,-329,-302,-88,-10,-100,-67
308,225,-83,-266,196,71,-326,-302,-94,-18,-104,-69
305,222,-83,-263,194,70,-323,-302,-100,-26,-108,-73
302,219,-83,-260,193,68,-320,-303,-106,-34,-113,-77
299,216,-83,-257,191,67,-317,-302,-113,-43,-117,-80
295,212,-83,-253,189,65,-315,-302,-121,-51,-122,-83
292,209,-83,-250,188,63,-312,-302,-129,-60,-128,-89
289,205,-84,-247,187,61,-308,-301,-135,-69,-134,-94
286,200,-86,-243,186,57,-304,-300,-140,-77,-139,-98
283,195,-88,-239,186,54,-300,-298,-145,-85,-144,-102
279,190,-89,-234,184,51,-297,-299,-151,-93,-149,-106
276,185,-91,-230,184,47,-293,-300,-155,-101,-153,-109
274,183,-91,-228,183,46,-291,-301,-161,-107,-157,-113
273,181,-92,-227,183,45,-288,-302,-167,-114,-160,-116
272,179,-93,-225,183,43,-287,-302,-172,-120,-164,-119
270,176,-94,-223,182,41,-285,-302,-177,-125,-167,-122
268,173,-95,-220,182,39,-283,-303,-183,-131,-172,-125
268,171,-97,-219,183,37,-280,-304,-188,-137,-176,-129
266,168,-98,-217,182,35,-277,-303,-191,-142,-179,-131
264,164,-100,-214,182,32,-275,-303,-194,-147,-181,-134
262,161,-101,-211,182,30,-275,-305,-199,-152,-185,-138
260,158,-102,-209,181,28,-274,-306,-202,-155,-188,-139
257,156,-101,-206,179,28,-272,-306,-204,-158,-190,-140
255,156,-99,-205,177,29,-271,-308,-208,-162,-192,-143
256,155,-101,-205,179,27,-270,-310,-211,-166,-194,-143
256,154,-102,-205,179,26,-270,-310,-214,-168,-195,-144
255,152,-103,-203,179,25,-270,-310,-217,-170,-198,-147
255,151,-104,-203,180,24,-270,-310,-220,-173,-200,-150
254,150,-104,-202,179,23,-269,-309,-221,-175,-201,-150
254,149,-105,-201,180,22,-268,-311,-223,-178,-202,-152
253,148,-105,-200,179,22,-267,-312,-224,-179,-204,-153
253,146,-107,-199,180,20,-267,-313,-227,-182,-206,-155
252,144,-108,-198,180,18,-267,-314,-228,-183,-207,-155
252,143,-109,-197,181,17,-266,-314,-228,-183,-207,-155
250,143,-107,-196,179,18,-267,-315,-230,-184,-207,-156
249,143,-106,-196,178,19,-266,-314,-230,-184,-207,-155
250,143,-107,-196,179,18,-267,-315,-233,-186,-208,-157
250,143,-107,-196,179,18,-267,-314,-233,-187,-208,-158
250,142,-108,-196,179,17,-266,-313,-233,-187,-208,-158
249,140,-109,-194,179,16,-265,-312,-233,-188,-209,-158
248,138,-110,-193,179,14,-265,-313,-233,-188,-210,-158
247,137,-110,-192,179,14,-264,-314,-234,-189,-211,-159
247,137,-110,-192,179,14,-264,-314,-234,-189,-211,-160
249,138,-111,-193,180,14,-264,-314,-234,-189,-211,-160
251,140,-111,-195,181,15,-264,-314,-234,-188,-211,-159
251,140,-111,-195,181,15,-263,-313,-234,-187,-209,-157
251,140,-111,-195,181,15,-264,-313,-235,-188,-209,-158
251,140,-111,-195,181,15,-264,-312,-235,-188,-210,-158
251,139,-112,-195,182,14,-263,-311,-235,-189,-210,-159
250,138,-112,-194,181,13,-261,-309,-235,-188,-210,-159
249,137,-112,-193,181,13,-261,-310,-235,-188,-210,-159
248,137,-111,-192,180,13,-262,-311,-235,-189,-210,-160
246,137,-109,-191,178,14,-261,-311,-234,-188,-210,-159
247,137,-110,-192,179,14,-262,-313,-236,-188,-210,-158
248,137,-111,-192,180,13,-262,-313,-235,-187,-209,-157
249,138,-111,-193,180,14,-263,-312,-235,-187,-208,-157
250,139,-111,-194,181,14,-263,-310,-234,-186,-209,-158
250,139,-111,-194,181,14,-263,-309,-233,-186,-210,-159
250,138,-112,-194,181,13,-263,-309,-234,-187,-210,-160
250,138,-112,-194,181,13,-262,-310,-234,-187,-210,-160
250,138,-112,-194,181,13,-262,-310,-234,-187,-211,-160
249,138,-111,-193,180,14,-262,-310,-233,-187,-211,-160
248,138,-110,-193,179,14,-262,-310,-232,-186,-209,-159
247,138,-109,-192,178,15,-262,-311,-232,-186,-209,-159
247,139,-108,-193,178,16,-263,-311,-233,-185,-209,-158
247,140,-107,-193,177,17,-264,-311,-234,-186,-209,-158
248,141,-107,-194,178,17,-264,-310,-234,-185,-209,-158
248,141,-107,-194,178,17,-263,-308,-233,-184,-209,-158
249,142,-107,-195,178,18,-263,-308,-233,-185,-209,-159
250,142,-108,-196,179,17,-261,-307,-232,-185,-208,-159
251,142,-109,-196,180,17,-262,-309,-233,-186,-210,-160
250,141,-109,-195,180,16,-262,-309,-232,-185,-209,-159
249,140,-109,-194,179,16,-262,-309,-232,-184,-209,-158
250,139,-111,-194,181,14,-262,-310,-232,-184,-209,-158
249,139,-110,-194,180,15,-263,-310,-233,-185,-209,-158
248,140,-108,-194,178,16,-264,-310,-233,-186,-209,-159
248,141,-107,-194,178,17,-264,-309,-233,-186,-209,-158
248,141,-107,-194,178,17,-264,-307,-232,-185,-209,-158
249,141,-108,-195,179,17,-264,-307,-233,-186,-209,-159
249,141,-108,-195,179,17,-263,-307,-233,-186,-209,-160
248,140,-108,-194,178,16,-262,-307,-232,-185,-209,-159
248,140,-108,-194,178,16,-263,-308,-233,-186,-210,-160
248,139,-109,-193,179,15,-263,-310,-234,-187,-210,-160
249,140,-109,-194,179,16,-264,-310,-234,-186,-210,-160
249,141,-108,-195,179,17,-265,-312,-234,-186,-210,-160
249,141,-108,-195,179,17,-265,-312,-235,-186,-210,-159
249,141,-108,-195,179,17,-265,-311,-236,-187,-211,-159
249,142,-107,-195,178,18,-265,-310,-236,-186,-210,-159
250,143,-107,-196,179,18,-265,-310,-236,-187,-210,-160
249,142,-107,-195,178,18,-263,-309,-235,-187,-210,-160
249,142,-107,-195,178,18,-263,-310,-235,-187,-211,-160
249,142,-107,-195,178,18,-264,-311,-235,-188,-211,-160
249,142,-107,-195,178,18,-264,-312,-236,-188,-210,-160
249,142,-107,-195,178,18,-265,-313,-236,-189,-211,-160
249,143,-106,-196,178,19,-266,-314,-237,-189,-212,-160
249,145,-104,-197,177,21,-266,-314,-237,-189,-211,-161
250,146,-104,-198,177,21,-266,-314,-238,-189,-211,-161
249,145,-104,-197,177,21,-265,-312,-238,-190,-211,-161
248,144,-104,-196,176,20,-264,-311,-238,-190,-211,-161
247,142,-105,-194,176,19,-264,-311,-238,-190,-211,-161
247,141,-106,-194,177,18,-264,-312,-238,-191,-212,-161
247,140,-107,-193,177,17,-265,-314,-238,-192,-213,-162
246,139,-107,-192,177,16,-264,-314,-239,-191,-213,-161
248,140,-108,-194,178,16,-265,-316,-240,-192,-213,-162
249,141,-108,-195,179,17,-265,-317,-241,-192,-214,-162
248,141,-107,-194,178,17,-264,-315,-240,-192,-213,-161
246,141,-105,-193,176,18,-264,-315,-241,-192,-213,-162
246,141,-105,-193,176,18,-264,-315,-242,-193,-214,-162
247,141,-106,-194,177,18,-264,-315,-242,-193,-214,-163
247,140,-107,-193,177,17,-264,-315,-242,-193,-214,-163
247,140,-107,-193,177,17,-263,-315,-242,-193,-214,-163
247,140,-107,-193,177,17,-262,-315,-241,-193,-214,-163
247,140,-107,-193,177,17,-263,-317,-242,-194,-214,-163
246,139,-107,-192,177,16,-264,-318,-243,-194,-214,-163
245,138,-107,-191,176,16,-264,-318,-244,-195,-214,-163
244,137,-107,-190,176,15,-265,-319,-245,-195,-215,-163
245,138,-107,-191,176,16,-265,-318,-245,-195,-214,-163
245,139,-106,-192,176,17,-265,-318,-246,-195,-215,-163
245,138,-107,-191,176,16,-263,-316,-245,-194,-214,-162
245,137,-108,-191,177,15,-263,-316,-244,-195,-214,-163
246,137,-109,-191,178,14,-263,-316,-244,-194,-214,-163
246,138,-108,-192,177,15,-263,-317,-245,-195,-215,-164
247,138,-109,-192,178,15,-262,-317,-245,-194,-215,-163
246,139,-107,-192,177,16,-262,-318,-246,-195,-215,-163
246,139,-107,-192,177,16,-263,-319,-247,-196,-215,-164
245,139,-106,-192,176,17,-264,-320,-248,-197,-216,-165
245,140,-105,-192,175,18,-264,-320,-248,-197,-216,-164
245,140,-105,-192,175,18,-263,-319,-248,-196,-217,-164
245,141,-104,-193,175,19,-263,-317,-247,-196,-216,-164
245,140,-105,-192,175,18,-263,-318,-247,-196,-216,-165
245,138,-107,-191,176,16,-262,-318,-247,-197,-216,-165
245,137,-108,-191,177,15,-263,-319,-247,-198,-217,-166
245,138,-107,-191,176,16,-264,-320,-248,-197,-217,-166
245,139,-106,-192,176,17,-265,-321,-249,-198,-219,-167
245,139,-106,-192,176,17,-264,-321,-249,-197,-218,-167
245,139,-106,-192,176,17,-264,-320,-249,-197,-217,-166
246,140,-106,-193,176,17,-263,-319,-249,-196,-216,-165
246,141,-105,-193,176,18,-264,-319,-250,-197,-217,-166
246,140,-106,-193,176,17,-263,-318,-249,-196,-217,-166
246,139,-107,-192,177,16,-263,-318,-249,-197,-218,-167
245,138,-107,-191,176,16,-262,-318,-248,-196,-218,-166
245,137,-108,-191,177,15,-263,-319,-248,-197,-218,-167
245,136,-109,-190,177,14,-263,-321,-249,-198,-218,-167
244,137,-107,-190,176,15,-263,-322,-250,-197,-218,-166
244,137,-107,-190,176,15,-263,-322,-250,-197,-217,-165
244,137,-107,-190,176,15,-263,-322,-251,-198,-217,-166
244,136,-108,-190,176,14,-264,-321,-251,-198,-217,-167
243,136,-107,-189,175,15,-264,-320,-251,-198,-218,-168
243,137,-106,-190,175,16,-263,-319,-250,-197,-218,-167
243,137,-106,-190,175,16,-263,-318,-249,-196,-217,-166
243,136,-107,-189,175,15,-262,-319,-249,-196,-218,-167
243,136,-107,-189,175,15,-262,-319,-249,-196,-218,-166
244,135,-109,-189,177,13,-261,-320,-250,-196,-217,-165
243,134,-109,-188,176,13,-261,-320,-249,-196,-218,-165
243,135,-108,-189,176,14,-263,-322,-250,-197,-220,-167
243,136,-107,-189,175,15,-263,-321,-250,-197,-219,-166
243,137,-106,-190,175,16,-263,-320,-251,-196,-218,-165
243,137,-106,-190,175,16,-262,-320,-251,-197,-219,-167
243,136,-107,-189,175,15,-262,-320,-251,-197,-220,-168
243,136,-107,-189,175,15,-262,-320,-251,-197,-220,-167
243,135,-108,-189,176,14,-262,-320,-251,-198,-220,-168
242,135,-107,-188,175,14,-262,-320,-250,-197,-219,-167
242,137,-105,-189,174,16,-262,-321,-251,-198,-219,-167
243,139,-104,-191,174,18,-262,-322,-251,-198,-219,-166
244,139,-105,-191,175,17,-261,-321,-250,-197,-219,-166
245,140,-105,-192,175,18,-262,-321,-250,-197,-219,-166
245,141,-104,-193,175,19,-262,-320,-249,-196,-219,-165
245,142,-103,-193,174,20,-263,-320,-249,-196,-219,-166
246,142,-104,-194,175,19,-262,-318,-248,-196,-218,-166
247,143,-104,-195,176,20,-261,-318,-249,-196,-218,-166
248,144,-104,-196,176,20,-258,-316,-247,-195,-217,-165
248,145,-103,-196,176,21,-257,-315,-246,-194,-217,-164
249,147,-102,-198,176,23,-256,-315,-245,-193,-217,-164
249,148,-101,-198,175,24,-254,-314,-244,-192,-216,-163
249,149,-100,-199,175,25,-254,-314,-243,-191,-215,-162
250,149,-101,-199,176,24,-255,-314,-244,-191,-215,-163
250,149,-101,-199,176,24,-255,-313,-243,-190,-214,-162
250,148,-102,-199,176,23,-255,-313,-243,-190,-214,-162
249,146,-103,-197,176,22,-256,-314,-244,-192,-214,-162
248,145,-103,-196,176,21,-257,-315,-245,-194,-216,-164
249,145,-104,-197,177,21,-256,-315,-244,-194,-217,-164
250,145,-105,-197,178,20,-255,-314,-242,-192,-217,-164
251,145,-106,-198,179,20,-254,-314,-241,-191,-216,-163
252,148,-104,-200,178,22,-254,-313,-239,-189,-214,-162
253,151,-102,-202,178,25,-253,-312,-237,-187,-212,-160
253,153,-100,-203,177,27,-254,-312,-237,-186,-212,-160
252,154,-98,-203,175,28,-253,-310,-235,-185,-211,-159
253,155,-98,-204,176,29,-253,-310,-235,-184,-211,-159
254,154,-100,-204,177,27,-254,-310,-235,-185,-210,-158
252,153,-99,-202,176,27,-257,-312,-236,-184,-209,-158
252,153,-99,-202,176,27,-260,-315,-237,-185,-210,-158
252,154,-98,-203,175,28,-263,-316,-237,-185,-210,-158
252,154,-98,-203,175,28,-263,-317,-237,-186,-210,-158
253,150,-103,-201,178,24,-262,-316,-239,-187,-212,-159
254,146,-108,-200,181,19,-261,-316,-242,-189,-214,-160
255,144,-111,-199,183,17,-262,-316,-244,-191,-216,-163
255,141,-114,-198,185,14,-263,-316,-245,-192,-216,-164
254,138,-116,-196,185,11,-263,-318,-247,-193,-217,-164
253,136,-117,-194,185,10,-264,-320,-249,-194,-218,-165
253,135,-118,-194,186,9,-265,-321,-251,-196,-220,-167
253,135,-118,-194,186,9,-265,-322,-252,-197,-221,-168
251,134,-117,-192,184,9,-264,-323,-251,-197,-220,-167
250,134,-116,-192,183,9,-264,-324,-251,-196,-219,-166
250,135,-115,-192,183,10,-264,-323,-250,-195,-218,-165
251,136,-115,-193,183,11,-264,-323,-251,-195,-219,-166
251,136,-115,-193,183,11,-263,-322,-252,-197,-219,-167
250,134,-116,-192,183,9,-262,-321,-253,-198,-221,-168
247,133,-114,-190,181,10,-259,-319,-253,-198,-223,-169
244,131,-113,-187,179,9,-257,-319,-254,-199,-225,-170
243,130,-113,-186,178,9,-255,-318,-254,-200,-223,-171
242,129,-113,-185,178,8,-254,-319,-254,-201,-224,-172
241,127,-114,-184,178,7,-256,-321,-255,-202,-224,-172
239,126,-113,-182,176,7,-257,-322,-256,-202,-225,-172
237,126,-111,-181,174,8,-258,-324,-257,-203,-225,-172
236,127,-109,-181,173,9,-258,-324,-257,-202,-225,-172
237,128,-109,-182,173,10,-257,-323,-256,-201,-223,-171
239,128,-111,-183,175,9,-258,-323,-257,-202,-224,-170
240,128,-112,-184,176,8,-257,-322,-256,-201,-225,-170
241,129,-112,-185,177,9,-257,-322,-254,-200,-225,-171
242,129,-113,-185,178,8,-256,-321,-254,-199,-223,-170
242,128,-114,-185,178,7,-255,-321,-255,-201,-222,-169
241,127,-114,-184,178,7,-256,-322,-255,-201,-223,-170
240,127,-113,-183,177,7,-257,-324,-255,-201,-224,-172
240,128,-112,-184,176,8,-257,-324,-256,-200,-224,-171
241,128,-113,-184,177,8,-257,-324,-257,-201,-225,-171
238,127,-111,-182,175,8,-256,-323,-256,-200,-224,-171
236,126,-110,-181,173,8,-257,-322,-256,-200,-223,-172
236,127,-109,-181,173,9,-258,-323,-257,-201,-224,-172
238,129,-109,-183,174,10,-258,-323,-257,-201,-225,-171
237,128,-109,-182,173,10,-258,-321,-257,-201,-223,-171
236,126,-110,-181,173,8,-258,-321,-256,-201,-223,-170
"
		237","
		125","
		-112","
		-181","
		175","
		7","
		-256","
		-321","
		-256","
		-201","
		-222","
		-170"
240,127,-113,-183,177,7,-255,-323,-257,-202,-223,-171
239,127,-112,-183,176,8,-256,-323,-255,-201,-224,-172
238,127,-111,-182,175,8,-255,-323,-255,-200,-224,-171
237,127,-110,-182,174,9,-256,-324,-256,-199,-223,-171
237,127,-110,-182,174,9,-256,-323,-256,-199,-223,-171
238,127,-111,-182,175,8,-256,-322,-256,-199,-223,-171
238,127,-111,-182,175,8,-256,-322,-256,-200,-223,-172
238,126,-112,-182,175,7,-255,-322,-256,-200,-223,-171
237,125,-112,-181,175,7,-254,-321,-255,-200,-223,-170
237,125,-112,-181,175,7,-255,-322,-256,-201,-224,-171
236,126,-110,-181,173,8,-256,-323,-256,-201,-225,-172
237,126,-111,-181,174,8,-257,-324,-257,-201,-224,-173
237,127,-110,-182,174,9,-257,-323,-257,-200,-224,-172
235,127,-108,-181,172,10,-255,-321,-255,-198,-222,-170
235,128,-107,-181,171,11,-255,-321,-256,-199,-223,-171
237,127,-110,-182,174,9,-256,-321,-257,-200,-224,-170
238,127,-111,-182,175,8,-256,-320,-257,-201,-224,-171
238,128,-110,-183,174,9,-256,-321,-257,-201,-225,-172
238,129,-109,-183,174,10,-255,-320,-255,-200,-224,-172
237,128,-109,-182,173,10,-255,-320,-256,-200,-224,-171
237,128,-109,-182,173,10,-256,-321,-257,-201,-224,-172
237,129,-108,-183,173,11,-256,-323,-256,-201,-224,-172
238,130,-108,-184,173,11,-256,-322,-256,-200,-224,-172
238,130,-108,-184,173,11,-256,-322,-257,-200,-224,-172
238,131,-107,-184,173,12,-257,-322,-258,-201,-225,-173
238,131,-107,-184,173,12,-257,-321,-258,-201,-225,-173
237,130,-107,-183,172,12,-257,-320,-257,-201,-225,-172
236,130,-106,-183,171,12,-257,-321,-256,-201,-226,-173
235,129,-106,-182,171,12,-256,-321,-255,-201,-225,-172
236,128,-108,-182,172,10,-256,-322,-256,-201,-225,-172
236,128,-108,-182,172,10,-256,-322,-256,-201,-225,-172
236,128,-108,-182,172,10,-256,-322,-255,-200,-225,-172
237,130,-107,-183,172,12,-256,-322,-255,-199,-224,-172
238,132,-106,-185,172,13,-257,-322,-255,-199,-223,-172
237,131,-106,-184,172,13,-256,-320,-255,-199,-222,-172
236,130,-106,-183,171,12,-256,-321,-256,-199,-224,-172
237,131,-106,-184,172,13,-255,-320,-255,-199,-224,-172
238,131,-107,-184,173,12,-255,-320,-255,-200,-224,-173
238,130,-108,-184,173,11,-254,-321,-255,-199,-224,-172
237,129,-108,-183,173,11,-255,-322,-255,-200,-225,-173
236,129,-107,-182,172,11,-254,-321,-254,-199,-225,-172
236,129,-107,-182,172,11,-254,-322,-254,-199,-224,-172
236,130,-106,-183,171,12,-255,-324,-255,-200,-224,-172
237,130,-107,-183,172,12,-255,-323,-255,-199,-223,-172
237,131,-106,-184,172,13,-255,-322,-255,-198,-223,-172
237,131,-106,-184,172,13,-255,-321,-255,-198,-223,-172
237,131,-106,-184,172,13,-255,-320,-254,-198,-223,-172
238,131,-107,-184,173,12,-256,-321,-255,-199,-225,-173
238,130,-108,-184,173,11,-254,-321,-253,-198,-224,-172
237,130,-107,-183,172,12,-254,-322,-253,-198,-224,-172
237,129,-108,-183,173,11,-254,-323,-254,-198,-224,-172
237,129,-108,-183,173,11,-254,-323,-254,-198,-223,-172
237,130,-107,-183,172,12,-253,-323,-253,-198,-223,-171
236,130,-106,-183,171,12,-253,-323,-253,-198,-222,-171
236,131,-105,-183,171,13,-253,-322,-253,-198,-222,-171
237,131,-106,-184,172,13,-253,-321,-252,-198,-222,-171
239,132,-107,-185,173,13,-253,-321,-252,-198,-222,-171
239,131,-108,-185,174,12,-252,-321,-252,-198,-223,-171
239,130,-109,-184,174,11,-252,-322,-253,-198,-223,-171
239,130,-109,-184,174,11,-253,-322,-252,-198,-224,-171
238,131,-107,-184,173,12,-253,-323,-252,-198,-224,-171
237,131,-106,-184,172,13,-253,-322,-252,-197,-223,-170
236,131,-105,-183,171,13,-252,-322,-252,-197,-222,-170
236,132,-104,-184,170,14,-252,-322,-252,-197,-221,-170
235,132,-103,-183,169,15,-253,-321,-251,-197,-221,-170
234,132,-102,-183,168,15,-254,-321,-251,-197,-222,-171
234,132,-102,-183,168,15,-253,-320,-251,-197,-223,-171
234,132,-102,-183,168,15,-253,-319,-251,-197,-222,-171
234,132,-102,-183,168,15,-253,-319,-250,-196,-222,-171
235,133,-102,-184,169,16,-252,-319,-250,-196,-221,-170
236,133,-103,-184,170,15,-252,-320,-251,-196,-221,-170
236,133,-103,-184,170,15,-253,-322,-251,-196,-222,-170
236,133,-103,-184,170,15,-253,-323,-251,-196,-222,-170
237,133,-104,-185,171,15,-254,-322,-251,-196,-221,-170
238,134,-104,-186,171,15,-254,-322,-251,-196,-221,-171
237,134,-103,-185,170,16,-252,-319,-249,-195,-221,-170
236,133,-103,-184,170,15,-249,-315,-248,-196,-222,-172
236,132,-104,-184,170,14,-245,-309,-247,-197,-224,-173
235,128,-107,-181,171,11,-241,-303,-246,-200,-227,-176
234,126,-108,-180,171,9,-236,-298,-246,-202,-229,-178
233,125,-108,-179,171,9,-231,-292,-244,-205,-231,-180
232,125,-107,-178,170,9,-226,-286,-242,-207,-233,-182
233,125,-108,-179,171,9,-219,-276,-237,-208,-235,-184
235,127,-108,-181,172,10,-213,-262,-228,-207,-234,-184
238,133,-105,-185,172,14,-208,-250,-215,-202,-229,-181
242,146,-96,-194,169,25,-206,-240,-198,-193,-222,-174
249,159,-90,-204,170,35,-203,-226,-176,-178,-211,-165
259,169,-90,-214,175,40,-196,-201,-144,-157,-197,-154
271,181,-90,-226,181,46,-187,-173,-105,-129,-181,-143
282,194,-88,-238,185,53,-179,-152,-64,-97,-162,-127
290,212,-78,-251,184,67,-178,-147,-32,-63,-139,-108
297,235,-62,-266,180,87,-183,-154,-4,-23,-111,-84
305,264,-41,-284,173,112,-197,-174,12,23,-76,-54
311,298,-13,-304,162,143,-223,-223,1,71,-38,-21
314,333,19,-323,148,176,-261,-304,-35,119,2,15
314,364,50,-339,132,207,-311,-402,-74,169,40,49
310,393,83,-351,114,238,-364,-494,-100,225,76,81
298,422,124,-360,87,273,-415,-578,-115,281,110,111
282,441,159,-361,62,300,-454,-650,-132,325,135,131
267,424,157,-345,55,291,-466,-695,-155,336,127,121
253,364,111,-308,71,238,-442,-697,-182,298,74,72
243,291,48,-267,98,170,-414,-677,-211,230,1,8
238,238,0,-238,119,119,-413,-659,-240,163,-58,-40
236,202,-34,-219,135,84,-435,-636,-275,89,-107,-78
234,169,-65,-201,150,52,-446,-600,-325,-4,-155,-116
228,140,-88,-184,158,26,-439,-560,-386,-105,-196,-146
221,124,-97,-172,159,14,-421,-521,-442,-196,-227,-169
218,117,-101,-167,160,8,-397,-475,-458,-257,-248,-184
221,116,-105,-168,163,6,-376,-431,-431,-281,-259,-194
225,117,-108,-171,167,5,-356,-400,-389,-272,-258,-196
226,123,-103,-174,165,10,-334,-379,-354,-247,-251,-192
228,132,-96,-180,162,18,-320,-365,-323,-225,-241,-185
232,142,-90,-187,161,26,-314,-355,-296,-206,-229,-175
235,152,-83,-193,159,35,-311,-349,-275,-190,-217,-166
237,159,-78,-198,158,41,-302,-342,-255,-175,-206,-158
239,162,-77,-200,158,43,-292,-336,-238,-165,-201,-155
240,160,-80,-200,160,40,-283,-331,-226,-161,-201,-154
242,157,-85,-199,164,36,-276,-326,-219,-160,-202,-154
243,154,-89,-198,166,33,-269,-319,-212,-159,-201,-155
243,151,-92,-197,168,30,-265,-315,-209,-158,-200,-156
243,149,-94,-196,169,28,-263,-312,-210,-159,-201,-154
243,150,-93,-196,168,29,-263,-311,-213,-161,-202,-155
246,151,-95,-198,171,28,-262,-310,-214,-162,-203,-157
247,150,-97,-198,172,27,-260,-308,-213,-162,-204,-158
246,150,-96,-198,171,27,-259,-307,-213,-163,-205,-159
244,149,-95,-196,170,27,-257,-305,-212,-164,-206,-160
243,149,-94,-196,169,28,-256,-303,-210,-165,-206,-160
243,148,-95,-195,169,27,-255,-301,-208,-166,-207,-161
244,147,-97,-195,171,25,-256,-302,-207,-167,-207,-161
245,146,-99,-195,172,24,-258,-303,-207,-168,-208,-161
245,146,-99,-195,172,24,-259,-303,-208,-167,-207,-160
244,147,-97,-195,171,25,-258,-303,-208,-165,-206,-159
244,147,-97,-195,171,25,-258,-303,-209,-164,-206,-159
243,147,-96,-195,170,26,-257,-302,-209,-166,-206,-160
242,147,-95,-194,169,26,-255,-301,-207,-166,-206,-160
243,148,-95,-195,169,27,-255,-300,-206,-166,-208,-161
244,149,-95,-196,170,27,-255,-300,-204,-166,-208,-161
246,150,-96,-198,171,27,-254,-299,-201,-166,-207,-160
246,150,-96,-198,171,27,-255,-299,-200,-165,-206,-160
247,150,-97,-198,172,27,-256,-300,-200,-165,-206,-160
247,151,-96,-199,172,28,-256,-300,-201,-164,-204,-159
247,152,-95,-199,171,29,-258,-301,-202,-163,-204,-159
246,152,-94,-199,170,29,-257,-300,-202,-162,-204,-158
245,151,-94,-198,170,29,-256,-300,-202,-162,-204,-158
246,151,-95,-198,171,28,-254,-300,-201,-162,-204,-158
247,152,-95,-199,171,29,-253,-300,-201,-163,-205,-159
247,151,-96,-199,172,28,-252,-298,-199,-162,-205,-160
247,151,-96,-199,172,28,-253,-298,-197,-162,-205,-160
249,151,-98,-200,174,27,-255,-299,-197,-162,-206,-160
249,151,-98,-200,174,27,-256,-300,-197,-162,-205,-160
247,151,-96,-199,172,28,-256,-300,-196,-161,-203,-158
245,151,-94,-198,170,29,-257,-300,-197,-160,-202,-158
244,151,-93,-197,169,29,-256,-299,-196,-158,-201,-156
244,151,-93,-197,169,29,-255,-297,-196,-158,-201,-156
245,151,-94,-198,170,29,-254,-297,-196,-159,-202,-157
245,151,-94,-198,170,29,-253,-296,-194,-158,-202,-157
246,152,-94,-199,170,29,-252,-296,-192,-157,-202,-158
247,152,-95,-199,171,29,-254,-296,-191,-157,-203,-158
249,151,-98,-200,174,27,-255,-296,-190,-156,-202,-158
249,151,-98,-200,174,27,-256,-296,-189,-156,-201,-156
250,152,-98,-201,174,27,-258,-298,-190,-156,-200,-156
249,152,-97,-200,173,28,-257,-296,-188,-153,-198,-154
249,153,-96,-201,173,29,-257,-296,-189,-152,-198,-154
249,154,-95,-201,172,30,-256,-295,-188,-151,-198,-153
249,155,-94,-202,172,31,-254,-293,-187,-151,-197,-153
250,155,-95,-202,173,30,-254,-293,-187,-151,-198,-155
250,156,-94,-203,172,31,-254,-293,-185,-152,-199,-156
250,157,-93,-203,172,32,-255,-293,-183,-152,-199,-156
250,157,-93,-203,172,32,-255,-293,-181,-151,-198,-155
251,158,-93,-204,172,33,-257,-295,-181,-151,-198,-155
250,158,-92,-204,171,33,-259,-296,-181,-150,-198,-154
250,159,-91,-204,171,34,-259,-295,-180,-148,-196,-153
251,160,-91,-205,171,35,-258,-294,-179,-146,-195,-152
252,161,-91,-206,172,35,-257,-293,-178,-145,-195,-151
251,161,-90,-206,171,36,-257,-292,-177,-144,-195,-151
251,162,-89,-206,170,37,-256,-291,-175,-144,-194,-152
252,161,-91,-206,172,35,-256,-290,-173,-143,-194,-151
253,161,-92,-207,173,35,-257,-291,-172,-144,-194,-152
253,162,-91,-207,172,36,-259,-291,-171,-143,-193,-152
254,163,-91,-208,173,36,-261,-293,-171,-143,-193,-152
254,164,-90,-209,172,37,-261,-293,-170,-140,-192,-149
254,164,-90,-209,172,37,-261,-292,-169,-139,-190,-147
254,164,-90,-209,172,37,-260,-291,-168,-137,-189,-147
253,164,-89,-208,171,38,-260,-290,-167,-136,-189,-147
253,165,-88,-209,171,39,-258,-288,-165,-135,-189,-147
254,166,-88,-210,171,39,-258,-287,-163,-135,-189,-147
254,166,-88,-210,171,39,-257,-286,-161,-134,-188,-146
255,167,-88,-211,172,40,-257,-285,-158,-133,-186,-146
256,167,-89,-211,173,39,-259,-286,-156,-132,-185,-145
257,169,-88,-213,173,41,-261,-287,-154,-129,-184,-144
258,170,-88,-214,173,41,-262,-287,-153,-126,-183,-142
259,171,-88,-215,174,42,-264,-287,-153,-125,-182,-142
259,171,-88,-215,174,42,-264,-286,-152,-123,-180,-141
259,171,-88,-215,174,42,-263,-284,-149,-121,-179,-140
259,173,-86,-216,173,44,-263,-283,-147,-119,-178,-139
260,175,-85,-217,173,45,-262,-282,-145,-117,-177,-139
262,177,-85,-219,174,46,-263,-281,-142,-116,-176,-138
264,177,-87,-220,176,45,-265,-281,-140,-115,-175,-137
264,178,-86,-221,175,46,-266,-280,-137,-112,-174,-136
265,178,-87,-221,176,46,-268,-280,-134,-109,-172,-135
266,178,-88,-222,177,45,-270,-281,-133,-107,-171,-133
267,180,-87,-223,177,47,-271,-280,-131,-103,-168,-132
268,183,-85,-225,177,49,-271,-279,-129,-100,-166,-130
269,184,-85,-226,177,50,-271,-278,-127,-96,-164,-129
269,185,-84,-227,177,51,-270,-275,-124,-93,-162,-127
269,185,-84,-227,177,51,-270,-274,-120,-92,-161,-126
270,186,-84,-228,177,51,-272,-274,-117,-90,-161,-126
272,188,-84,-230,178,52,-274,-274,-113,-85,-159,-125
274,190,-84,-232,179,53,-275,-273,-109,-81,-155,-122
276,191,-85,-233,181,53,-277,-273,-105,-77,-153,-120
277,193,-84,-235,181,55,-279,-272,-102,-72,-151,-117
279,195,-84,-237,182,56,-281,-272,-100,-68,-148,-115
280,197,-83,-238,182,57,-282,-271,-98,-63,-145,-113
281,200,-81,-240,181,60,-282,-270,-95,-59,-142,-111
283,203,-80,-243,182,62,-282,-269,-92,-56,-140,-108
286,205,-81,-245,184,62,-282,-267,-86,-51,-137,-105
288,207,-81,-247,185,63,-284,-267,-82,-48,-134,-104
291,208,-83,-249,187,63,-286,-267,-78,-43,-131,-102
293,210,-83,-251,188,64,-288,-267,-74,-38,-128,-99
295,212,-83,-253,189,65,-291,-269,-72,-34,-126,-97
295,215,-80,-255,188,68,-293,-270,-70,-29,-122,-93
296,217,-79,-256,188,69,-295,-270,-67,-25,-118,-91
297,220,-77,-258,187,72,-296,-270,-65,-21,-115,-88
298,222,-76,-260,187,73,-297,-269,-62,-16,-113,-86
300,225,-75,-262,188,75,-298,-269,-60,-13,-111,-85
301,227,-74,-264,188,77,-300,-269,-57,-9,-109,-83
302,228,-74,-265,188,77,-301,-271,-54,-5,-107,-81
302,229,-73,-265,188,78,-304,-273,-52,-3,-104,-80
303,231,-72,-267,188,80,-307,-274,-50,0,-101,-78
305,233,-72,-269,189,81,-309,-275,-48,5,-98,-75
307,235,-72,-271,190,82,-311,-277,-47,9,-96,-72
308,238,-70,-273,189,84,-314,-279,-48,10,-94,-70
309,241,-68,-275,189,87,-316,-281,-47,13,-91,-68
310,245,-65,-277,188,90,-316,-282,-47,15,-89,-66
311,247,-64,-279,188,92,-315,-281,-47,17,-87,-64
312,248,-64,-280,188,92,-316,-283,-46,17,-86,-63
312,249,-63,-280,188,93,-318,-286,-47,16,-86,-64
311,250,-61,-280,186,95,-318,-286,-48,16,-85,-62
310,251,-59,-280,185,96,-320,-288,-49,15,-85,-61
308,251,-57,-279,183,97,-320,-290,-52,14,-85,-61
306,250,-56,-278,181,97,-319,-291,-56,11,-85,-61
304,250,-54,-277,179,98,-318,-291,-60,8,-85,-61
303,250,-53,-276,178,99,-317,-292,-65,4,-87,-63
301,249,-52,-275,177,99,-315,-291,-70,-2,-89,-64
299,247,-52,-273,176,98,-313,-291,-76,-9,-93,-68
295,244,-51,-269,173,97,-309,-290,-80,-15,-95,-70
293,241,-52,-267,173,95,-307,-290,-87,-24,-101,-74
291,237,-54,-264,173,92,-304,-290,-93,-32,-105,-78
288,234,-54,-261,171,90,-302,-291,-100,-40,-110,-81
285,230,-55,-257,170,88,-299,-291,-106,-48,-114,-85
282,226,-56,-254,169,85,-297,-291,-114,-56,-119,-89
279,222,-57,-250,168,83,-294,-292,-122,-64,-124,-93
276,219,-57,-247,167,81,-291,-292,-129,-72,-128,-97
273,215,-58,-244,166,79,-286,-290,-134,-79,-132,-99
270,211,-59,-240,165,76,-282,-290,-140,-88,-138,-104
268,206,-62,-237,165,72,-279,-291,-146,-96,-143,-109
265,202,-63,-233,164,70,-275,-291,-150,-102,-147,-112
263,199,-64,-231,164,68,-274,-292,-156,-110,-152,-117
260,196,-64,-228,162,66,-272,-292,-161,-116,-155,-121
257,192,-65,-224,161,64,-269,-293,-166,-121,-158,-123
255,188,-67,-221,161,61,-268,-295,-172,-127,-161,-126
253,184,-69,-218,161,58,-267,-297,-178,-132,-165,-129
250,181,-69,-215,160,56,-265,-297,-183,-137,-168,-132
248,178,-70,-213,159,54,-264,-298,-188,-143,-172,-135
246,175,-71,-210,159,52,-261,-298,-191,-147,-175,-137
246,173,-73,-209,160,50,-259,-298,-194,-152,-178,-139
245,171,-74,-208,160,49,-258,-298,-196,-156,-181,-142
245,170,-75,-207,160,48,-258,-299,-199,-160,-183,-144
245,170,-75,-207,160,48,-258,-301,-202,-163,-184,-146
245,169,-76,-207,161,47,-257,-303,-204,-166,-186,-147
244,166,-78,-205,161,44,-257,-304,-207,-167,-187,-148
242,164,-78,-203,160,43,-257,-305,-211,-170,-189,-150
240,163,-77,-201,159,43,-257,-306,-214,-171,-191,-151
240,162,-78,-201,159,42,-256,-307,-216,-174,-192,-152
241,162,-79,-201,160,42,-255,-307,-218,-176,-194,-154
241,161,-80,-201,161,41,-254,-308,-220,-178,-195,-155
241,158,-83,-199,162,38,-253,-307,-220,-179,-196,-156
240,157,-83,-198,162,37,-253,-307,-221,-181,-196,-156
239,156,-83,-197,161,37,-253,-308,-221,-182,-196,-157
238,155,-83,-196,161,36,-254,-309,-223,-183,-197,-157
237,154,-83,-195,160,36,-254,-309,-223,-183,-197,-157
236,153,-83,-194,160,35,-253,-310,-224,-183,-198,-156
236,153,-83,-194,160,35,-254,-311,-227,-184,-199,-158
235,152,-83,-193,159,35,-254,-311,-229,-185,-200,-158
235,151,-84,-193,160,34,-252,-310,-229,-185,-199,-158
236,150,-86,-193,161,32,-251,-309,-228,-185,-199,-159
237,151,-86,-194,162,33,-250,-309,-228,-186,-199,-159
239,152,-87,-195,163,33,-251,-309,-228,-186,-199,-159
239,152,-87,-195,163,33,-251,-309,-228,-187,-199,-159
239,151,-88,-195,164,32,-252,-311,-229,-188,-200,-160
238,151,-87,-194,163,32,-252,-311,-229,-187,-200,-159
237,151,-86,-194,162,33,-252,-311,-230,-187,-199,-159
237,151,-86,-194,162,33,-252,-311,-231,-187,-198,-159
236,151,-85,-193,161,33,-252,-311,-232,-187,-199,-159
236,151,-85,-193,161,33,-252,-310,-232,-187,-200,-159
236,151,-85,-193,161,33,-252,-310,-232,-187,-200,-159
236,151,-85,-193,161,33,-252,-309,-231,-188,-201,-160
236,150,-86,-193,161,32,-251,-308,-230,-188,-200,-160
236,150,-86,-193,161,32,-251,-308,-229,-188,-199,-160
"
		236","
		150","
		-86","
		-193","
		161","
		32","
		-251","
		-309","
		-228","
		-187","
		-198","
		-159"
237,151,-86,-194,162,33,-253,-310,-230,-187,-198,-159
237,152,-85,-194,161,34,-252,-310,-231,-186,-198,-158
237,152,-85,-194,161,34,-252,-309,-231,-186,-198,-158
236,152,-84,-194,160,34,-252,-309,-231,-186,-199,-158
235,152,-83,-193,159,35,-252,-309,-232,-187,-199,-159
235,152,-83,-193,159,35,-252,-309,-231,-187,-199,-160
236,152,-84,-194,160,34,-252,-309,-230,-187,-198,-159
236,152,-84,-194,160,34,-251,-308,-229,-187,-198,-158
236,152,-84,-194,160,34,-252,-309,-229,-187,-198,-159
237,153,-84,-195,161,35,-253,-310,-230,-187,-199,-160
237,154,-83,-195,160,36,-253,-308,-229,-186,-198,-158
237,155,-82,-196,160,37,-252,-308,-229,-185,-197,-157
237,156,-81,-196,159,38,-253,-309,-230,-186,-198,-158
237,156,-81,-196,159,38,-253,-309,-230,-186,-198,-158
238,156,-82,-197,160,37,-253,-309,-231,-186,-198,-158
237,156,-81,-196,159,38,-253,-309,-231,-186,-198,-159
236,156,-80,-196,158,38,-252,-308,-229,-186,-198,-159
236,155,-81,-195,159,37,-252,-307,-229,-187,-198,-159
236,155,-81,-195,159,37,-253,-308,-229,-187,-198,-160
235,155,-80,-195,158,38,-254,-309,-229,-187,-199,-160
235,156,-79,-195,157,39,-254,-309,-229,-186,-198,-159
235,156,-79,-195,157,39,-254,-309,-229,-185,-198,-159
236,156,-80,-196,158,38,-254,-309,-230,-186,-198,-159
235,156,-79,-195,157,39,-253,-309,-230,-186,-198,-159
235,156,-79,-195,157,39,-253,-308,-230,-186,-198,-159
236,157,-79,-196,158,39,-253,-308,-230,-186,-198,-159
237,157,-80,-197,159,39,-253,-307,-228,-185,-197,-159
238,157,-81,-197,160,38,-254,-306,-228,-186,-198,-159
237,156,-81,-196,159,38,-255,-308,-229,-187,-199,-160
236,155,-81,-195,159,37,-255,-308,-228,-187,-198,-159
236,155,-81,-195,159,37,-256,-309,-229,-186,-198,-158
235,155,-80,-195,158,38,-256,-309,-230,-186,-198,-158
236,156,-80,-196,158,38,-256,-308,-230,-186,-197,-158
236,157,-79,-196,158,39,-256,-309,-231,-187,-197,-158
236,158,-78,-197,157,40,-256,-308,-231,-188,-197,-159
236,159,-77,-197,157,41,-254,-308,-231,-188,-197,-160
237,159,-78,-198,158,41,-254,-308,-231,-189,-198,-160
237,159,-78,-198,158,41,-254,-308,-231,-189,-198,-160
236,159,-77,-197,157,41,-254,-309,-231,-190,-198,-160
235,158,-77,-196,156,41,-255,-310,-231,-191,-199,-161
235,159,-76,-197,156,42,-256,-310,-232,-190,-199,-160
235,160,-75,-197,155,43,-256,-310,-232,-189,-198,-159
236,160,-76,-198,156,42,-256,-311,-233,-190,-199,-160
236,159,-77,-197,157,41,-255,-310,-233,-189,-198,-159
236,158,-78,-197,157,40,-255,-309,-233,-189,-198,-160
236,158,-78,-197,157,40,-255,-310,-233,-190,-198,-160
235,158,-77,-196,156,41,-255,-310,-232,-190,-198,-160
235,158,-77,-196,156,41,-255,-310,-232,-191,-199,-160
236,157,-79,-196,158,39,-256,-310,-232,-191,-198,-160
236,157,-79,-196,158,39,-256,-312,-233,-191,-198,-159
235,157,-78,-196,157,40,-256,-311,-232,-190,-197,-158
235,157,-78,-196,157,40,-256,-311,-233,-190,-198,-158
236,157,-79,-196,158,39,-257,-312,-235,-191,-199,-159
236,157,-79,-196,158,39,-256,-313,-236,-192,-199,-159
237,157,-80,-197,159,39,-255,-311,-236,-192,-199,-159
237,158,-79,-197,158,40,-255,-311,-235,-192,-199,-159
236,157,-79,-196,158,39,-255,-312,-235,-193,-200,-160
235,156,-79,-195,157,39,-255,-311,-235,-193,-199,-159
235,156,-79,-195,157,39,-255,-311,-235,-192,-199,-159
235,157,-78,-196,157,40,-256,-312,-235,-192,-198,-159
235,157,-78,-196,157,40,-257,-313,-236,-192,-198,-159
235,157,-78,-196,157,40,-257,-313,-236,-192,-198,-159
235,157,-78,-196,157,40,-256,-313,-237,-192,-198,-158
235,157,-78,-196,157,40,-256,-313,-237,-193,-198,-158
236,156,-80,-196,158,38,-255,-312,-237,-193,-198,-159
236,155,-81,-195,159,37,-255,-313,-238,-194,-200,-160
235,153,-82,-194,159,36,-255,-313,-238,-194,-200,-161
234,153,-81,-193,158,36,-256,-313,-238,-195,-200,-161
235,153,-82,-194,159,36,-256,-313,-238,-195,-199,-161
236,154,-82,-195,159,36,-257,-315,-239,-196,-199,-161
237,155,-82,-196,160,37,-257,-315,-239,-194,-198,-160
238,156,-82,-197,160,37,-258,-315,-240,-193,-198,-160
237,156,-81,-196,159,38,-258,-316,-241,-194,-199,-161
236,156,-80,-196,158,38,-257,-316,-240,-194,-199,-161
235,156,-79,-195,157,39,-257,-316,-240,-195,-200,-162
235,155,-80,-195,158,38,-257,-316,-240,-196,-201,-162
234,155,-79,-194,157,38,-256,-315,-240,-195,-200,-161
234,155,-79,-194,157,38,-256,-314,-240,-196,-201,-162
233,155,-78,-194,156,39,-257,-314,-240,-196,-201,-162
233,154,-79,-193,156,38,-257,-315,-240,-196,-202,-162
233,154,-79,-193,156,38,-258,-316,-241,-196,-202,-162
233,154,-79,-193,156,38,-258,-316,-242,-196,-202,-162
233,153,-80,-193,157,37,-258,-315,-241,-195,-201,-161
233,153,-80,-193,157,37,-257,-315,-242,-195,-201,-162
233,152,-81,-192,157,36,-257,-316,-242,-195,-202,-162
232,152,-80,-192,156,36,-256,-316,-242,-196,-202,-163
234,153,-81,-193,158,36,-257,-317,-243,-198,-203,-164
235,153,-82,-194,159,36,-256,-316,-242,-198,-203,-164
234,153,-81,-193,158,36,-256,-316,-242,-197,-204,-164
232,152,-80,-192,156,36,-256,-316,-241,-196,-203,-164
232,152,-80,-192,156,36,-257,-315,-241,-196,-204,-164
232,152,-80,-192,156,36,-257,-315,-242,-196,-204,-165
231,151,-80,-191,156,36,-257,-315,-243,-196,-204,-164
230,151,-79,-190,155,36,-258,-316,-244,-197,-204,-164
231,150,-81,-190,156,35,-257,-317,-244,-197,-204,-164
232,151,-81,-191,157,35,-256,-316,-243,-197,-204,-163
233,151,-82,-192,158,35,-257,-317,-244,-198,-205,-164
234,152,-82,-193,158,35,-256,-316,-243,-197,-205,-163
234,153,-81,-193,158,36,-257,-316,-243,-197,-205,-163
234,153,-81,-193,158,36,-257,-315,-242,-196,-204,-163
235,154,-81,-194,158,37,-257,-315,-242,-196,-204,-163
235,153,-82,-194,159,36,-258,-316,-243,-195,-204,-163
234,153,-81,-193,158,36,-259,-317,-244,-196,-205,-164
233,153,-80,-193,157,37,-257,-317,-244,-196,-205,-164
233,153,-80,-193,157,37,-257,-316,-244,-196,-205,-163
232,152,-80,-192,156,36,-257,-317,-244,-196,-206,-163
232,152,-80,-192,156,36,-256,-317,-244,-198,-206,-163
233,153,-80,-193,157,37,-255,-316,-244,-198,-206,-164
234,154,-80,-194,157,37,-255,-316,-245,-199,-207,-165
233,153,-80,-193,157,37,-256,-316,-244,-197,-206,-165
231,152,-79,-191,155,37,-257,-316,-243,-196,-205,-164
231,153,-78,-192,155,38,-259,-317,-245,-198,-207,-165
231,153,-78,-192,155,38,-259,-317,-246,-197,-207,-165
231,154,-77,-192,154,39,-258,-316,-246,-197,-207,-165
232,155,-77,-193,155,39,-259,-316,-247,-198,-207,-166
233,155,-78,-194,156,39,-257,-315,-245,-197,-206,-165
234,155,-79,-194,157,38,-256,-313,-243,-196,-205,-163
234,155,-79,-194,157,38,-255,-313,-241,-195,-205,-163
235,155,-80,-195,158,38,-256,-314,-243,-196,-207,-164
235,156,-79,-195,157,39,-256,-314,-243,-196,-207,-164
235,157,-78,-196,157,40,-256,-313,-243,-196,-206,-163
235,158,-77,-196,156,41,-257,-314,-244,-196,-207,-163
235,158,-77,-196,156,41,-257,-314,-245,-195,-206,-163
235,158,-77,-196,156,41,-257,-313,-245,-195,-205,-163
235,157,-78,-196,157,40,-256,-311,-244,-194,-205,-162
236,157,-79,-196,158,39,-255,-311,-244,-196,-206,-163
237,158,-79,-197,158,40,-254,-310,-242,-195,-206,-163
238,160,-78,-199,158,41,-254,-310,-241,-196,-207,-163
239,161,-78,-200,159,42,-254,-309,-240,-195,-206,-163
239,161,-78,-200,159,42,-253,-307,-238,-194,-205,-163
239,161,-78,-200,159,42,-252,-305,-236,-192,-204,-162
239,161,-78,-200,159,42,-252,-305,-237,-191,-204,-162
239,161,-78,-200,159,42,-252,-305,-238,-190,-204,-162
239,160,-79,-199,159,41,-252,-306,-238,-190,-205,-162
239,159,-80,-199,160,40,-250,-304,-237,-190,-204,-161
240,160,-80,-200,160,40,-249,-304,-237,-190,-204,-160
241,161,-80,-201,161,41,-247,-304,-236,-191,-204,-160
241,160,-81,-200,161,40,-246,-303,-234,-191,-204,-160
241,160,-81,-200,161,40,-247,-304,-234,-191,-204,-161
242,163,-79,-202,161,42,-248,-304,-234,-190,-204,-160
243,166,-77,-204,160,45,-247,-302,-230,-187,-201,-158
243,169,-74,-206,159,48,-245,-299,-227,-183,-198,-157
242,170,-72,-206,157,49,-244,-297,-226,-181,-198,-156
240,169,-71,-204,156,49,-241,-296,-225,-180,-197,-155
240,169,-71,-204,156,49,-240,-296,-226,-181,-198,-156
241,168,-73,-204,157,48,-241,-297,-227,-183,-199,-157
242,168,-74,-205,158,47,-243,-298,-228,-184,-199,-157
243,168,-75,-205,159,47,-248,-300,-228,-185,-199,-157
243,167,-76,-205,160,46,-253,-303,-228,-184,-199,-156
243,164,-79,-203,161,43,-260,-308,-231,-186,-201,-158
243,161,-82,-202,163,40,-263,-311,-233,-187,-202,-159
243,159,-84,-201,164,38,-263,-311,-236,-188,-204,-161
243,157,-86,-200,165,36,-262,-311,-237,-188,-205,-161
243,155,-88,-199,166,34,-262,-313,-239,-190,-206,-162
242,153,-89,-197,166,32,-262,-314,-241,-192,-207,-163
242,151,-91,-196,167,30,-260,-313,-242,-193,-208,-163
243,151,-92,-197,168,30,-258,-312,-240,-193,-208,-163
243,152,-91,-197,167,31,-256,-312,-239,-192,-207,-163
241,152,-89,-196,165,32,-257,-313,-240,-193,-208,-164
240,151,-89,-195,165,31,-256,-312,-241,-194,-209,-165
240,150,-90,-195,165,30,-256,-313,-242,-195,-210,-166
239,148,-91,-193,165,29,-256,-314,-244,-196,-212,-168
235,145,-90,-190,163,28,-253,-312,-245,-196,-212,-168
232,144,-88,-188,160,28,-252,-311,-246,-198,-213,-169
230,144,-86,-187,158,29,-251,-310,-246,-199,-214,-169
227,143,-84,-185,156,30,-251,-311,-246,-199,-214,-169
225,142,-83,-183,154,30,-251,-312,-246,-199,-215,-169
225,141,-84,-183,155,29,-252,-314,-246,-200,-215,-170
225,140,-85,-182,155,28,-252,-314,-245,-200,-214,-170
225,140,-85,-182,155,28,-253,-314,-246,-200,-214,-169
225,142,-83,-183,154,30,-254,-315,-247,-200,-214,-168
227,144,-83,-185,155,31,-253,-314,-246,-199,-213,-167
228,144,-84,-186,156,30,-253,-315,-247,-199,-213,-169
227,142,-85,-184,156,29,-254,-316,-247,-199,-213,-169
226,142,-84,-184,155,29,-254,-315,-247,-197,-213,-168
228,144,-84,-186,156,30,-254,-316,-247,-198,-214,-170
230,143,-87,-186,159,28,-253,-314,-245,-197,-214,-170
229,142,-87,-185,158,28,-253,-314,-245,-197,-214,-169
227,141,-86,-184,157,28,-253,-314,-245,-198,-213,-168
226,141,-85,-183,156,28,-255,-315,-247,-199,-214,-169
225,141,-84,-183,155,29,-256,-316,-248,-199,-214,-169
224,142,-82,-183,153,30,-256,-316,-248,-198,-214,-169
226,144,-82,-185,154,31,-255,-315,-247,-197,-214,-168
230,146,-84,-188,157,31,-254,-315,-247,-197,-214,-167
230,146,-84,-188,157,31,-254,-314,-246,-196,-214,-166
228,145,-83,-186,156,31,-254,-314,-245,-196,-213,-166
228,144,-84,-186,156,30,-254,-314,-245,-197,-214,-167
227,143,-84,-185,156,30,-253,-313,-245,-197,-214,-167
226,141,-85,-183,156,28,-254,-313,-245,-197,-214,-167
225,139,-86,-182,156,27,-254,-313,-246,-197,-214,-167
225,139,-86,-182,156,27,-254,-313,-246,-198,-214,-167
225,140,-85,-182,155,28,-254,-313,-245,-197,-213,-167
226,142,-84,-184,155,29,-254,-314,-246,-196,-213,-167
227,145,-82,-186,155,32,-255,-315,-246,-196,-214,-168
227,146,-81,-186,154,33,-253,-314,-245,-195,-214,-167
227,145,-82,-186,155,32,-252,-312,-244,-194,-214,-167
227,145,-82,-186,155,32,-252,-311,-244,-195,-214,-166
227,145,-82,-186,155,32,-252,-312,-244,-196,-214,-166
227,144,-83,-185,155,31,-251,-311,-243,-195,-213,-166
227,143,-84,-185,156,30,-252,-311,-243,-195,-214,-166
227,143,-84,-185,156,30,-252,-312,-243,-194,-214,-167
227,143,-84,-185,156,30,-253,-312,-244,-194,-214,-167
226,143,-83,-184,155,30,-254,-312,-245,-195,-214,-168
226,142,-84,-184,155,29,-254,-311,-244,-194,-213,-167
227,142,-85,-184,156,29,-255,-312,-244,-195,-214,-168
227,142,-85,-184,156,29,-254,-311,-243,-194,-214,-168
227,143,-84,-185,156,30,-252,-310,-241,-194,-213,-167
228,145,-83,-186,156,31,-252,-310,-242,-195,-214,-167
228,145,-83,-186,156,31,-252,-310,-242,-194,-213,-166
228,145,-83,-186,156,31,-253,-310,-242,-195,-214,-166
227,144,-83,-185,155,31,-252,-309,-242,-194,-213,-166
227,145,-82,-186,155,32,-253,-310,-242,-193,-212,-166
228,146,-82,-187,155,32,-253,-310,-242,-191,-212,-165
228,147,-81,-187,155,33,-253,-310,-243,-192,-213,-165
228,147,-81,-187,155,33,-253,-309,-242,-193,-213,-165
229,147,-82,-188,156,33,-252,-309,-241,-193,-212,-164
229,148,-81,-188,155,34,-252,-308,-240,-193,-212,-164
230,148,-82,-189,156,33,-254,-309,-241,-193,-212,-165
230,147,-83,-188,157,32,-253,-308,-240,-191,-211,-164
230,147,-83,-188,157,32,-253,-309,-240,-191,-211,-165
229,147,-82,-188,156,33,-254,-310,-241,-191,-211,-165
228,148,-80,-188,154,34,-254,-311,-241,-191,-211,-165
228,148,-80,-188,154,34,-254,-311,-241,-191,-211,-165
228,148,-80,-188,154,34,-254,-311,-241,-192,-212,-165
228,147,-81,-187,155,33,-254,-311,-242,-192,-212,-165
228,147,-81,-187,155,33,-254,-311,-241,-193,-213,-165
228,147,-81,-187,155,33,-253,-310,-241,-193,-212,-164
228,147,-81,-187,155,33,-253,-310,-240,-192,-212,-164
228,147,-81,-187,155,33,-253,-311,-241,-192,-212,-164
227,146,-81,-186,154,33,-253,-311,-240,-192,-211,-163
226,146,-80,-186,153,33,-253,-311,-240,-192,-211,-163
228,147,-81,-187,155,33,-254,-311,-240,-191,-211,-163
229,148,-81,-188,155,34,-253,-310,-239,-188,-209,-162
229,148,-81,-188,155,34,-252,-309,-239,-189,-209,-162
228,148,-80,-188,154,34,-252,-310,-239,-190,-209,-162
229,147,-82,-188,156,33,-251,-310,-238,-190,-210,-163
229,148,-81,-188,155,34,-251,-309,-237,-190,-210,-163
229,148,-81,-188,155,34,-252,-309,-237,-190,-211,-163
228,147,-81,-187,155,33,-253,-309,-238,-190,-212,-163
226,147,-79,-186,153,34,-252,-309,-237,-188,-211,-162
227,148,-79,-187,153,35,-252,-310,-238,-188,-211,-163
228,149,-79,-188,154,35,-251,-309,-238,-187,-210,-163
229,148,-81,-188,155,34,-251,-308,-238,-187,-210,-162
229,148,-81,-188,155,34,-251,-308,-237,-187,-210,-161
230,149,-81,-189,156,34,-251,-309,-237,-187,-210,-162
231,150,-81,-190,156,35,-251,-309,-237,-187,-211,-163
231,150,-81,-190,156,35,-252,-310,-236,-187,-211,-163
231,149,-82,-190,157,34,-252,-309,-234,-186,-209,-161
230,149,-81,-189,156,34,-252,-309,-234,-186,-209,-161
229,149,-80,-189,155,35,-252,-309,-235,-186,-209,-161
229,148,-81,-188,155,34,-253,-309,-235,-185,-208,-159
229,149,-80,-189,155,35,-254,-310,-236,-186,-209,-160
229,150,-79,-189,154,36,-253,-310,-235,-185,-209,-160
228,150,-78,-189,153,36,-253,-310,-236,-185,-209,-160
227,150,-77,-188,152,37,-252,-309,-235,-184,-207,-159
228,151,-77,-189,153,37,-251,-308,-234,-184,-207,-159
230,153,-77,-191,154,38,-251,-307,-233,-184,-207,-159
230,152,-78,-191,154,37,-251,-307,-233,-185,-208,-160
229,150,-79,-189,154,36,-249,-306,-233,-185,-209,-162
229,148,-81,-188,155,34,-246,-301,-231,-186,-211,-164
230,146,-84,-188,157,31,-244,-295,-231,-188,-214,-167
229,143,-86,-186,158,29,-241,-290,-230,-190,-218,-171
227,142,-85,-184,156,29,-236,-285,-228,-193,-220,-173
227,142,-85,-184,156,29,-230,-278,-225,-195,-223,-174
227,140,-87,-183,157,27,-222,-268,-219,-196,-224,-175
229,139,-90,-184,160,25,-216,-256,-212,-195,-224,-176
232,143,-89,-187,161,27,-212,-246,-201,-191,-221,-173
236,152,-84,-194,160,34,-210,-238,-185,-181,-213,-165
241,162,-79,-201,160,42,-210,-226,-163,-165,-201,-156
247,174,-73,-210,160,51,-207,-206,-134,-143,-186,-145
258,187,-71,-222,165,58,-202,-179,-96,-116,-169,-132
272,203,-69,-237,171,67,-196,-151,-52,-82,-150,-117
286,221,-65,-253,176,78,-195,-132,-9,-45,-127,-99
296,245,-51,-270,174,97,-201,-132,28,-4,-99,-75
304,276,-28,-290,166,124,-216,-149,54,43,-65,-46
311,310,-1,-310,156,155,-237,-184,61,93,-29,-14
316,339,23,-327,147,181,-263,-238,44,143,9,19
315,365,50,-340,133,208,-295,-316,5,190,43,49
309,389,80,-349,115,235,-331,-404,-39,236,75,77
296,414,118,-355,89,266,-371,-494,-75,284,106,105
281,432,151,-356,65,292,-408,-569,-100,325,131,126
268,422,154,-345,57,288,-423,-609,-122,338,126,118
254,367,113,-310,71,240,-402,-613,-152,298,73,70
239,294,55,-266,92,175,-364,-607,-198,219,-3,4
226,240,14,-233,106,127,-341,-608,-248,139,-67,-48
216,208,-8,-212,112,100,-337,-609,-293,66,-112,-84
205,180,-25,-192,115,78,-340,-595,-342,-21,-154,-117
194,151,-43,-172,119,54,-341,-571,-404,-121,-195,-146
183,129,-54,-156,119,38,-340,-543,-460,-210,-228,-169
179,119,-60,-149,120,30,-339,-508,-482,-269,-250,-186
184,119,-65,-151,125,27,-342,-467,-460,-291,-258,-193
197,126,-71,-161,134,28,-349,-429,-414,-279,-254,-191
209,133,-76,-171,143,29,-344,-398,-371,-253,-247,-187
216,139,-77,-177,147,31,-327,-375,-336,-230,-238,-182
221,146,-75,-183,148,36,-315,-360,-308,-213,-228,-175
227,153,-74,-190,151,40,-310,-349,-282,-194,-217,-165
232,160,-72,-196,152,44,-304,-340,-259,-177,-207,-157
235,166,-69,-200,152,49,-296,-332,-239,-165,-200,-152
236,167,-69,-201,153,49,-289,-327,-224,-158,-196,-149
"
		236","
		166","
		-70","
		-201","
		153","
		48","
		-282","
		-324","
		-213","
		-153","
		-194","
		-148"
236,165,-71,-200,154,47,-274,-317,-205,-148,-192,-146
238,164,-74,-201,156,45,-270,-311,-201,-146,-191,-147
239,164,-75,-201,157,45,-265,-307,-198,-145,-190,-146
239,163,-76,-201,158,44,-262,-303,-198,-144,-190,-146
238,162,-76,-200,157,43,-260,-299,-197,-145,-190,-146
239,160,-79,-199,159,41,-260,-297,-198,-147,-192,-147
239,159,-80,-199,160,40,-258,-295,-196,-148,-194,-148
240,158,-82,-199,161,38,-257,-294,-196,-149,-195,-149
240,157,-83,-198,162,37,-256,-294,-195,-151,-196,-151
239,156,-83,-197,161,37,-255,-294,-193,-151,-195,-151
239,157,-82,-198,161,38,-257,-296,-194,-151,-195,-152
240,159,-81,-199,161,39,-257,-296,-193,-151,-195,-151
242,161,-81,-201,162,40,-257,-295,-193,-149,-194,-149
243,164,-79,-203,161,43,-257,-293,-192,-147,-192,-147
242,163,-79,-202,161,42,-256,-293,-192,-146,-193,-147
241,160,-81,-200,161,40,-255,-291,-191,-146,-194,-147
241,159,-82,-200,162,39,-255,-290,-190,-148,-195,-148
242,159,-83,-200,163,38,-254,-288,-189,-148,-195,-149
242,160,-82,-201,162,39,-254,-289,-188,-149,-196,-150
242,161,-81,-201,162,40,-255,-290,-187,-148,-195,-149
242,161,-81,-201,162,40,-255,-292,-186,-146,-194,-149
241,161,-80,-201,161,41,-256,-293,-186,-145,-193,-149
241,161,-80,-201,161,41,-256,-293,-187,-146,-192,-148
242,162,-80,-202,161,41,-255,-291,-186,-143,-191,-146
243,163,-80,-203,162,42,-256,-290,-185,-142,-191,-145
243,163,-80,-203,162,42,-255,-289,-185,-142,-191,-145
242,161,-81,-201,162,40,-254,-288,-184,-142,-192,-146
243,160,-83,-201,163,39,-255,-288,-183,-143,-193,-147
243,159,-84,-201,164,38,-255,-288,-182,-144,-193,-148
243,159,-84,-201,164,38,-255,-289,-182,-144,-193,-147
243,160,-83,-201,163,39,-255,-289,-182,-143,-192,-146
243,161,-82,-202,163,40,-255,-289,-181,-142,-191,-145
243,162,-81,-202,162,41,-256,-290,-181,-141,-191,-145
244,163,-81,-203,163,41,-255,-288,-180,-138,-188,-144
245,164,-81,-204,163,42,-255,-287,-180,-137,-188,-144
246,164,-82,-205,164,41,-255,-285,-178,-136,-188,-144
246,162,-84,-204,165,39,-255,-285,-178,-136,-189,-145
246,160,-86,-203,166,37,-253,-284,-176,-136,-189,-145
245,159,-86,-202,166,37,-251,-283,-173,-135,-188,-144
244,158,-86,-201,165,36,-252,-284,-173,-135,-188,-144
244,158,-86,-201,165,36,-253,-286,-173,-135,-188,-143
244,159,-85,-201,165,37,-254,-286,-172,-134,-187,-142
246,161,-85,-203,166,38,-255,-286,-172,-134,-186,-141
247,163,-84,-205,166,40,-255,-286,-171,-131,-186,-141
247,164,-83,-205,165,41,-256,-286,-171,-131,-187,-142
247,164,-83,-205,165,41,-255,-285,-171,-131,-187,-142
248,163,-85,-205,167,39,-255,-283,-169,-131,-187,-143
249,163,-86,-206,168,39,-254,-282,-168,-131,-188,-144
249,162,-87,-205,168,38,-253,-282,-165,-131,-188,-144
248,162,-86,-205,167,38,-253,-282,-162,-128,-186,-142
248,163,-85,-205,167,39,-255,-283,-162,-127,-185,-141
248,164,-84,-206,166,40,-256,-283,-162,-125,-183,-139
248,165,-83,-206,166,41,-257,-283,-161,-122,-181,-137
249,166,-83,-207,166,42,-258,-282,-161,-121,-181,-137
249,166,-83,-207,166,42,-257,-281,-160,-120,-180,-136
249,166,-83,-207,166,42,-257,-280,-159,-120,-180,-136
248,166,-82,-207,165,42,-256,-279,-158,-120,-180,-136
248,165,-83,-206,166,41,-255,-278,-155,-119,-179,-136
249,164,-85,-206,167,40,-256,-278,-153,-119,-179,-136
250,164,-86,-207,168,39,-257,-279,-152,-118,-179,-136
251,165,-86,-208,169,40,-258,-278,-150,-115,-177,-134
252,167,-85,-209,169,41,-258,-279,-149,-114,-175,-133
