I,II,III,aVR,aVL,aVF,V1,V2,V3,V4,V5,V6
-328,-58,270,193,-299,106,135,314,63,120,-25,13
-328,-59,269,194,-298,105,135,315,64,120,-26,13
-329,-60,269,195,-299,105,135,315,63,118,-28,12
-329,-61,268,195,-298,104,136,315,63,117,-28,11
-330,-62,268,196,-299,103,136,314,62,115,-30,10
-330,-63,267,197,-298,102,136,314,62,115,-30,10
-331,-63,268,197,-299,103,136,313,60,115,-31,9
-331,-63,268,197,-299,103,135,312,59,114,-31,9
-331,-63,268,197,-299,103,134,312,58,115,-32,9
-331,-63,268,197,-299,103,134,312,57,115,-31,9
-330,-63,267,197,-298,102,135,313,57,115,-31,9
-330,-63,267,197,-298,102,135,313,57,114,-32,9
-330,-64,266,197,-298,101,136,313,57,113,-32,9
-330,-64,266,197,-298,101,136,312,56,112,-32,8
-330,-64,266,197,-298,101,136,311,55,111,-33,8
-330,-65,265,198,-297,100,136,310,55,111,-33,7
-330,-65,265,198,-297,100,135,310,55,111,-33,7
-331,-65,266,198,-298,101,136,311,55,112,-32,8
-331,-65,266,198,-298,101,136,311,54,112,-32,8
-332,-65,267,199,-299,101,136,312,53,112,-32,8
-332,-65,267,199,-299,101,136,314,53,113,-32,9
-332,-65,267,199,-299,101,136,315,53,113,-32,9
-333,-65,268,199,-300,102,136,313,53,113,-32,8
-332,-65,267,199,-299,101,136,312,54,112,-32,8
-331,-65,266,198,-298,101,137,313,55,112,-32,8
-330,-65,265,198,-297,100,136,313,55,112,-32,7
-330,-64,266,197,-298,101,137,313,56,112,-32,8
-330,-63,267,197,-298,102,137,313,56,112,-31,8
-330,-63,267,197,-298,102,138,314,56,113,-31,9
-330,-62,268,196,-299,103,137,314,55,112,-31,8
-331,-62,269,197,-300,104,138,313,56,113,-30,9
-331,-63,268,197,-299,103,138,312,55,114,-30,9
-331,-63,268,197,-299,103,138,313,55,114,-31,9
-330,-63,267,197,-298,102,138,313,56,114,-31,9
-330,-63,267,197,-298,102,137,314,57,114,-31,9
-329,-63,266,196,-297,102,136,315,56,114,-31,8
-329,-63,266,196,-297,102,136,317,56,114,-31,9
-329,-62,267,196,-298,103,135,318,56,114,-30,9
-328,-62,266,195,-297,102,135,319,57,115,-29,10
-329,-62,267,196,-298,103,135,319,56,116,-29,10
-329,-62,267,196,-298,103,135,318,55,116,-29,10
-329,-62,267,196,-298,103,135,318,56,116,-29,10
-329,-62,267,196,-298,103,135,318,57,116,-29,10
-329,-62,267,196,-298,103,135,318,57,116,-29,9
-329,-63,266,196,-297,102,136,317,58,115,-30,9
-328,-63,265,196,-296,101,136,317,59,115,-30,9
-328,-62,266,195,-297,102,136,317,59,115,-30,9
-328,-62,266,195,-297,102,136,318,59,115,-30,10
-328,-62,266,195,-297,102,136,318,59,116,-29,10
-328,-61,267,195,-297,103,135,317,58,115,-30,10
-328,-61,267,195,-297,103,136,316,57,115,-30,10
-328,-61,267,195,-297,103,135,317,57,114,-30,10
-328,-61,267,195,-297,103,135,317,58,114,-30,10
-328,-62,266,195,-297,102,136,318,58,114,-29,10
-328,-62,266,195,-297,102,135,317,57,114,-29,10
-328,-62,266,195,-297,102,135,316,56,113,-29,10
-328,-62,266,195,-297,102,134,315,56,114,-30,10
-328,-62,266,195,-297,102,134,314,55,114,-30,10
-328,-62,266,195,-297,102,133,313,53,113,-30,10
-328,-62,266,195,-297,102,133,313,53,113,-30,10
-328,-62,266,195,-297,102,133,313,52,113,-30,10
-328,-62,266,195,-297,102,133,314,52,112,-30,10
-328,-62,266,195,-297,102,134,314,52,111,-31,10
-328,-62,266,195,-297,102,134,315,52,110,-31,10
-327,-62,265,195,-296,102,134,313,52,109,-32,9
-327,-62,265,195,-296,102,134,312,52,109,-32,9
-327,-62,265,195,-296,102,134,312,52,109,-32,9
-327,-61,266,194,-296,103,134,312,51,109,-32,9
-327,-61,266,194,-296,103,133,311,49,108,-31,10
-328,-61,267,195,-297,103,132,310,46,107,-32,9
-329,-62,267,196,-298,103,133,311,45,107,-32,10
-329,-62,267,196,-298,103,132,310,44,106,-32,9
-329,-63,266,196,-297,102,132,309,43,105,-33,9
-329,-64,265,197,-297,101,133,308,44,105,-34,9
-329,-64,265,197,-297,101,133,306,44,104,-35,8
-329,-65,264,197,-296,100,133,305,45,103,-35,7
-329,-64,265,197,-297,101,132,304,46,102,-35,7
-330,-64,266,197,-298,101,132,304,46,101,-36,8
-330,-64,266,197,-298,101,132,305,45,101,-36,8
-330,-63,267,197,-298,102,131,306,42,100,-35,8
-330,-63,267,197,-298,102,131,306,40,100,-35,8
-330,-63,267,197,-298,102,132,305,39,100,-35,8
-330,-64,266,197,-298,101,132,303,37,100,-36,8
-329,-64,265,197,-297,101,131,303,37,100,-36,7
-329,-65,264,197,-296,100,131,304,37,100,-37,7
-329,-65,264,197,-296,100,130,303,38,99,-37,6
-330,-66,264,198,-297,99,131,304,39,100,-37,7
-330,-66,264,198,-297,99,130,304,38,100,-37,7
-330,-66,264,198,-297,99,130,305,37,100,-37,7
-331,-66,265,199,-298,100,130,305,36,100,-37,7
-331,-66,265,199,-298,100,130,303,35,100,-37,7
-330,-66,264,198,-297,99,130,302,35,100,-37,7
-330,-66,264,198,-297,99,130,303,35,99,-37,6
-330,-66,264,198,-297,99,130,304,35,99,-38,6
-330,-67,263,199,-296,98,129,303,35,97,-39,5
-330,-68,262,199,-296,97,129,302,35,97,-39,4
-330,-68,262,199,-296,97,128,301,35,96,-40,3
-331,-68,263,200,-297,98,129,302,35,97,-39,4
-331,-68,263,200,-297,98,129,302,35,96,-39,4
-331,-68,263,200,-297,98,129,302,34,96,-39,4
-332,-68,264,200,-298,98,129,302,34,96,-39,4
-332,-68,264,200,-298,98,130,302,35,96,-39,4
-332,-68,264,200,-298,98,130,302,36,95,-40,4
-332,-68,264,200,-298,98,130,302,36,94,-40,4
-332,-68,264,200,-298,98,130,302,36,94,-40,3
-332,-68,264,200,-298,98,130,302,36,93,-40,3
-332,-68,264,200,-298,98,129,301,35,93,-41,3
-333,-69,264,201,-298,98,130,301,34,94,-40,4
-333,-69,264,201,-298,98,130,301,33,95,-40,4
-333,-69,264,201,-298,98,130,302,33,96,-39,4
-332,-69,263,201,-297,97,129,302,31,95,-40,3
-332,-69,263,201,-297,97,129,302,31,95,-41,3
-332,-69,263,201,-297,97,130,302,32,95,-41,3
-332,-69,263,201,-297,97,130,302,33,95,-41,3
-332,-69,263,201,-297,97,130,301,33,95,-41,2
-332,-69,263,201,-297,97,129,299,32,94,-42,2
-332,-69,263,201,-297,97,129,298,31,94,-42,2
-332,-70,262,201,-297,96,129,297,33,95,-41,3
-333,-70,263,202,-298,97,128,296,33,94,-42,2
-333,-70,263,202,-298,97,128,296,32,94,-42,2
-334,-70,264,202,-299,97,127,296,31,93,-43,2
-334,-70,264,202,-299,97,128,296,31,92,-43,1
-334,-71,263,203,-298,96,129,298,31,93,-42,2
-334,-71,263,203,-298,96,129,299,31,92,-43,1
-334,-71,263,203,-298,96,129,300,31,92,-43,1
-334,-71,263,203,-298,96,130,300,31,92,-43,1
-334,-71,263,203,-298,96,130,298,31,92,-42,2
-333,-71,262,202,-297,96,129,296,30,92,-43,1
-333,-70,263,202,-298,97,129,294,31,92,-43,1
-333,-70,263,202,-298,97,128,294,30,92,-43,2
-333,-71,262,202,-297,96,128,294,29,92,-43,2
-334,-71,263,203,-298,96,129,295,30,93,-42,2
-333,-71,262,202,-297,96,128,293,28,93,-43,1
-333,-71,262,202,-297,96,128,293,28,92,-43,1
-334,-71,263,203,-298,96,129,295,29,93,-43,2
-334,-71,263,203,-298,96,128,295,29,93,-43,1
-334,-71,263,203,-298,96,128,294,30,93,-43,0
-334,-71,263,203,-298,96,128,293,29,93,-44,0
-335,-72,263,204,-299,96,127,293,29,93,-44,0
-335,-72,263,204,-299,96,127,294,30,93,-44,-1
-335,-72,263,204,-299,96,127,293,30,92,-45,-1
-335,-72,263,204,-299,96,127,293,30,91,-45,-1
-335,-72,263,204,-299,96,127,292,30,90,-45,-1
-335,-72,263,204,-299,96,127,292,30,90,-45,-1
-335,-72,263,204,-299,96,127,292,29,89,-46,-2
-335,-72,263,204,-299,96,127,292,27,88,-46,-2
-336,-73,263,205,-299,95,127,293,28,89,-45,-1
-336,-73,263,205,-299,95,127,293,27,90,-45,-1
-337,-73,264,205,-300,96,127,294,27,90,-45,-1
-337,-72,265,205,-301,97,128,295,27,90,-45,-1
-336,-72,264,204,-300,96,128,296,29,91,-45,-1
-336,-72,264,204,-300,96,129,296,30,91,-45,-1
-335,-72,263,204,-299,96,128,294,29,91,-46,-2
-335,-71,264,203,-299,97,128,294,29,91,-46,-1
-335,-72,263,204,-299,96,128,294,30,91,-46,-2
-335,-72,263,204,-299,96,127,293,30,91,-46,-2
-335,-72,263,204,-299,96,126,291,30,90,-46,-2
-335,-72,263,204,-299,96,126,290,30,90,-46,-2
-335,-73,262,204,-298,95,126,292,31,91,-46,-2
-335,-73,262,204,-298,95,126,292,31,90,-46,-2
-336,-73,263,205,-299,95,126,292,32,90,-47,-3
-337,-73,264,205,-300,96,127,293,32,89,-47,-3
-337,-73,264,205,-300,96,127,295,32,88,-47,-3
-337,-73,264,205,-300,96,127,296,32,87,-48,-4
-337,-73,264,205,-300,96,127,295,31,87,-47,-3
-337,-73,264,205,-300,96,127,294,30,87,-47,-3
-337,-73,264,205,-300,96,127,293,28,88,-47,-3
-336,-73,263,205,-299,95,127,293,28,88,-47,-3
-336,-72,264,204,-300,96,127,292,28,89,-46,-2
-336,-72,264,204,-300,96,127,292,27,90,-46,-2
-336,-73,263,205,-299,95,127,293,28,90,-46,-2
-335,-73,262,204,-298,95,127,293,29,90,-46,-3
-335,-73,262,204,-298,95,127,293,29,90,-46,-3
-335,-73,262,204,-298,95,127,293,28,90,-47,-4
-335,-74,261,205,-298,94,127,294,29,89,-47,-4
-335,-73,262,204,-298,95,127,293,30,89,-47,-4
-335,-73,262,204,-298,95,127,293,30,89,-47,-4
-335,-73,262,204,-298,95,127,292,30,89,-47,-4
-335,-72,263,204,-299,96,126,291,28,89,-47,-4
-335,-72,263,204,-299,96,126,290,28,89,-47,-4
-335,-71,264,203,-299,97,126,291,28,89,-47,-4
-335,-71,264,203,-299,97,126,291,29,89,-48,-4
-335,-72,263,204,-299,96,127,292,30,89,-48,-4
-335,-72,263,204,-299,96,126,292,30,88,-49,-5
-335,-72,263,204,-299,96,126,292,31,87,-49,-5
-335,-73,262,204,-298,95,127,292,32,87,-49,-5
-336,-73,263,205,-299,95,127,290,31,86,-49,-5
-336,-73,263,205,-299,95,127,289,29,86,-49,-5
-336,-73,263,205,-299,95,127,289,27,86,-49,-5
-336,-73,263,205,-299,95,126,288,26,87,-48,-5
-337,-73,264,205,-300,96,126,287,25,87,-48,-5
-337,-73,264,205,-300,96,126,288,25,88,-48,-5
-336,-73,263,205,-299,95,126,289,26,89,-48,-5
-336,-73,263,205,-299,95,126,289,27,89,-47,-5
-336,-73,263,205,-299,95,126,288,27,89,-47,-5
-335,-73,262,204,-298,95,126,290,28,89,-47,-5
-335,-73,262,204,-298,95,126,291,29,90,-47,-4
-335,-73,262,204,-298,95,126,291,30,90,-47,-4
-335,-73,262,204,-298,95,126,291,29,90,-47,-4
-336,-72,264,204,-300,96,126,291,29,90,-47,-4
-337,-73,264,205,-300,96,126,292,29,90,-47,-4
-337,-73,264,205,-300,96,127,292,28,89,-48,-4
-337,-74,263,206,-300,95,128,292,29,89,-48,-4
-337,-74,263,206,-300,95,128,292,29,89,-48,-4
-337,-74,263,206,-300,95,128,292,30,88,-48,-5
-338,-74,264,206,-301,95,128,291,30,88,-49,-5
-338,-74,264,206,-301,95,128,290,30,88,-48,-5
-337,-74,263,206,-300,95,128,290,30,88,-48,-4
-337,-73,264,205,-300,96,127,289,28,87,-49,-5
-337,-73,264,205,-300,96,127,290,28,88,-49,-5
-336,-73,263,205,-299,95,127,290,27,89,-48,-4
-335,-73,262,204,-298,95,127,290,27,89,-48,-4
-335,-73,262,204,-298,95,127,291,27,89,-48,-4
-336,-74,262,205,-299,94,127,290,27,89,-48,-5
-336,-74,262,205,-299,94,127,289,27,88,-49,-5
-337,-75,262,206,-299,94,127,289,29,89,-48,-5
-337,-75,262,206,-299,94,127,290,29,88,-48,-5
-337,-75,262,206,-299,94,126,290,30,88,-48,-5
-337,-75,262,206,-299,94,126,291,30,88,-48,-5
-337,-74,263,206,-300,95,126,293,30,88,-47,-4
-337,-73,264,205,-300,96,126,293,29,87,-48,-4
-336,-72,264,204,-300,96,127,294,29,88,-47,-4
-335,-71,264,203,-299,97,127,293,29,87,-48,-5
-334,-70,264,202,-299,97,127,293,29,87,-48,-5
-333,-69,264,201,-298,98,129,292,31,88,-47,-4
-332,-68,264,200,-298,98,130,291,31,89,-47,-4
-331,-67,264,199,-297,99,130,292,31,89,-47,-4
-330,-66,264,198,-297,99,131,294,31,91,-46,-3
-329,-65,264,197,-296,100,132,294,31,91,-45,-3
-329,-65,264,197,-296,100,132,294,32,91,-44,-2
-329,-65,264,197,-296,100,131,296,31,91,-44,-2
-329,-66,263,198,-296,99,131,297,30,91,-44,-2
-329,-66,263,198,-296,99,130,296,31,91,-44,-2
-330,-66,264,198,-297,99,131,296,33,91,-43,-2
-330,-67,263,199,-296,98,131,297,33,91,-44,-2
-330,-68,262,199,-296,97,132,298,32,91,-44,-2
-330,-67,263,199,-296,98,134,299,33,92,-44,-2
-330,-66,264,198,-297,99,137,301,36,93,-43,-1
-330,-65,265,198,-297,100,139,302,37,94,-42,-1
-329,-63,266,196,-297,102,141,303,39,95,-41,0
-328,-62,266,195,-297,102,144,306,41,97,-39,2
-328,-60,268,194,-298,104,145,307,43,98,-38,3
-327,-59,268,193,-297,105,146,308,44,99,-38,3
-326,-58,268,192,-297,105,147,309,45,99,-37,3
-325,-58,267,192,-296,105,146,308,44,98,-38,2
-325,-58,267,192,-296,105,146,307,43,97,-39,2
-325,-59,266,192,-295,104,146,306,44,98,-38,3
-325,-59,266,192,-295,104,144,304,42,97,-39,3
-325,-61,264,193,-294,102,140,301,40,96,-40,2
-324,-63,261,194,-292,99,138,299,38,96,-40,2
-324,-65,259,195,-291,97,135,296,36,94,-41,0
-324,-67,257,196,-290,95,134,295,35,94,-42,0
-324,-69,255,197,-289,93,131,293,33,92,-43,-1
-324,-71,253,198,-288,91,128,290,30,90,-45,-3
-325,-73,252,199,-288,90,126,289,30,89,-45,-4
-326,-74,252,200,-289,89,125,288,29,88,-45,-4
-326,-75,251,201,-288,88,123,288,28,87,-46,-5
-327,-76,251,202,-289,88,123,287,27,87,-46,-4
-327,-76,251,202,-289,88,122,287,26,86,-46,-5
-328,-77,251,203,-289,87,123,287,26,87,-46,-5
-329,-77,252,203,-290,88,124,286,24,86,-47,-5
-329,-77,252,203,-290,88,124,283,22,85,-48,-6
-330,-78,252,204,-291,87,124,283,22,85,-48,-6
-331,-79,252,205,-291,87,124,283,21,84,-50,-8
-333,-80,253,207,-293,87,124,283,21,83,-50,-9
-334,-81,253,208,-293,86,125,284,20,83,-51,-9
-335,-81,254,208,-294,87,124,284,20,81,-52,-11
-337,-82,255,210,-296,87,125,284,21,82,-52,-11
-338,-82,256,210,-297,87,125,284,21,82,-52,-10
-339,-82,257,211,-298,88,125,283,20,82,-53,-11
-340,-83,257,212,-298,87,125,284,22,82,-52,-10
-340,-83,257,212,-298,87,125,284,22,82,-53,-10
-340,-83,257,212,-298,87,125,283,22,82,-53,-10
-340,-82,258,211,-299,88,124,283,20,81,-53,-11
-340,-82,258,211,-299,88,124,283,19,81,-53,-11
-340,-82,258,211,-299,88,124,282,20,81,-53,-11
-340,-82,258,211,-299,88,123,281,20,82,-53,-11
-339,-81,258,210,-298,89,123,281,20,82,-52,-11
-340,-81,259,211,-299,89,123,281,21,82,-52,-10
-340,-81,259,211,-299,89,123,282,22,83,-52,-10
-340,-81,259,211,-299,89,123,282,22,83,-52,-10
-340,-81,259,211,-299,89,123,283,22,83,-52,-11
-340,-81,259,211,-299,89,123,283,23,83,-52,-11
-340,-81,259,211,-299,89,124,282,23,83,-52,-11
-340,-81,259,211,-299,89,124,282,23,83,-52,-11
-340,-81,259,211,-299,89,123,282,24,83,-52,-11
-340,-81,259,211,-299,89,123,281,25,83,-52,-11
-340,-81,259,211,-299,89,124,280,25,83,-52,-11
-340,-80,260,210,-300,90,124,280,26,83,-52,-10
-340,-80,260,210,-300,90,124,281,26,84,-52,-10
-341,-80,261,211,-301,91,124,282,26,84,-52,-11
-341,-81,260,211,-300,90,125,282,26,83,-53,-11
-341,-81,260,211,-300,90,126,282,24,83,-53,-12
-342,-82,260,212,-301,89,128,285,25,83,-53,-12
-342,-82,260,212,-301,89,130,288,25,82,-55,-14
-342,-84,258,213,-300,87,133,293,27,82,-55,-15
-341,-85,256,213,-298,86,137,297,28,80,-58,-17
-341,-86,255,214,-298,85,141,303,30,78,-60,-20
-341,-87,254,214,-297,84,146,311,33,76,-63,-23
-341,-88,253,215,-297,83,153,321,38,75,-64,-24
-341,-88,253,215,-297,83,160,331,44,74,-65,-25
"
		-340","
		-85","
		255","
		213","
		-297","
		85","
		166","
		340","
		51","
		74","
		-66","
		-26"
-338,-80,258,209,-298,89,173,354,63,78,-63,-23
-334,-73,261,204,-297,94,179,369,77,85,-57,-18
-328,-64,264,196,-296,100,185,388,96,98,-48,-10
-319,-53,266,186,-292,107,191,407,119,115,-34,1
-310,-41,269,176,-289,114,196,423,146,138,-15,16
-299,-25,274,162,-286,125,199,434,174,166,6,33
-288,-7,281,148,-284,137,200,438,202,199,34,54
-279,16,295,132,-287,156,198,429,224,237,65,79
-271,40,311,116,-291,176,190,401,237,279,101,108
-265,66,331,100,-298,199,172,349,233,321,137,138
-262,92,354,85,-308,223,143,277,217,366,175,169
-262,118,380,72,-321,249,104,192,193,415,216,201
-264,141,405,62,-334,273,55,93,162,464,255,232
-269,158,427,56,-348,293,4,-4,133,512,290,258
-276,163,439,57,-357,301,-42,-86,108,551,313,272
-283,152,435,66,-359,294,-78,-144,86,573,320,270
-291,129,420,81,-355,275,-101,-178,68,578,311,257
-297,98,395,100,-346,247,-117,-192,50,563,287,232
-304,59,363,123,-333,211,-124,-186,30,527,248,196
-313,18,331,148,-322,175,-126,-166,3,467,195,153
-323,-20,303,172,-313,142,-125,-143,-31,391,137,110
-334,-47,287,191,-310,120,-123,-118,-67,308,81,73
-345,-67,278,206,-311,106,-116,-88,-98,226,28,39
-354,-83,271,219,-312,94,-105,-52,-120,149,-19,9
-361,-94,267,228,-314,87,-88,-14,-133,87,-56,-14
-365,-100,265,233,-315,83,-66,24,-134,46,-78,-29
-366,-102,264,234,-315,81,-43,63,-120,27,-90,-38
-364,-99,265,232,-314,83,-21,99,-96,25,-92,-41
-360,-94,266,227,-313,86,-3,131,-69,35,-86,-38
-356,-88,268,222,-312,90,16,159,-46,51,-76,-32
-352,-82,270,217,-311,94,34,183,-26,66,-67,-26
-348,-77,271,213,-309,97,50,207,-6,77,-60,-21
-345,-73,272,209,-308,100,65,229,11,86,-53,-15
-342,-71,271,207,-306,100,77,246,23,93,-48,-12
-340,-70,270,205,-305,100,89,263,35,98,-45,-9
-338,-69,269,204,-303,100,99,275,43,100,-44,-8
-337,-70,267,204,-302,99,107,285,49,101,-43,-7
-337,-71,266,204,-301,98,114,292,52,103,-42,-6
-337,-72,265,205,-301,97,119,297,54,103,-42,-6
-337,-73,264,205,-300,96,122,301,56,102,-42,-7
-337,-74,263,206,-300,95,127,304,57,102,-43,-7
-337,-75,262,206,-299,94,129,306,57,101,-44,-8
-336,-76,260,206,-298,92,130,307,58,100,-45,-10
-336,-76,260,206,-298,92,132,308,60,99,-46,-10
-335,-76,259,206,-297,92,133,309,62,99,-46,-11
-335,-75,260,205,-297,93,133,309,61,98,-47,-12
-335,-75,260,205,-297,93,134,310,63,99,-46,-11
-335,-74,261,205,-298,94,134,312,64,99,-45,-11
-334,-74,260,204,-297,93,135,314,65,100,-45,-10
-334,-74,260,204,-297,93,137,315,63,101,-44,-9
-334,-74,260,204,-297,93,138,314,61,101,-44,-9
-334,-75,259,205,-296,92,139,312,61,100,-44,-10
-334,-76,258,205,-296,91,139,312,62,100,-45,-10
-334,-76,258,205,-296,91,139,313,62,100,-45,-10
-333,-76,257,205,-295,91,139,313,63,101,-44,-10
-333,-76,257,205,-295,91,138,313,66,101,-44,-10
-333,-76,257,205,-295,91,137,317,68,102,-43,-9
-333,-75,258,204,-295,92,137,321,69,103,-42,-9
-333,-75,258,204,-295,92,137,323,68,104,-42,-8
-333,-75,258,204,-295,92,138,324,68,104,-41,-8
-333,-75,258,204,-295,92,139,326,68,105,-40,-8
-333,-75,258,204,-295,92,141,328,68,105,-40,-8
-332,-75,257,204,-294,91,141,328,68,104,-41,-9
-331,-75,256,203,-293,91,141,328,70,105,-41,-9
-330,-75,255,203,-292,90,141,328,71,106,-40,-9
-330,-74,256,202,-293,91,140,327,72,106,-41,-10
-330,-74,256,202,-293,91,139,327,74,107,-40,-9
-331,-74,257,203,-294,92,140,328,76,109,-38,-7
-331,-73,258,202,-294,93,139,329,76,109,-38,-8
-331,-73,258,202,-294,93,139,331,77,110,-37,-7
-331,-73,258,202,-294,93,140,332,79,110,-37,-7
-330,-73,257,202,-293,92,141,333,80,110,-37,-7
-330,-73,257,202,-293,92,142,334,82,110,-37,-7
-329,-72,257,201,-293,93,142,333,83,110,-37,-8
-328,-72,256,200,-292,92,142,334,84,111,-37,-8
-328,-72,256,200,-292,92,141,335,86,112,-36,-7
-328,-71,257,200,-292,93,141,335,87,114,-35,-6
-329,-71,258,200,-293,94,141,337,88,115,-34,-5
-329,-70,259,200,-294,95,141,338,89,117,-34,-4
-329,-70,259,200,-294,95,142,340,91,117,-33,-4
-329,-70,259,200,-294,95,143,341,92,118,-33,-3
-328,-71,257,200,-292,93,144,342,94,117,-33,-4
-328,-71,257,200,-292,93,145,342,96,117,-33,-4
-328,-71,257,200,-292,93,145,342,98,117,-33,-4
-328,-70,258,199,-293,94,144,341,99,116,-34,-5
-328,-70,258,199,-293,94,143,341,100,117,-33,-5
-328,-69,259,199,-293,95,143,341,101,119,-31,-3
-328,-68,260,198,-294,96,143,340,102,121,-29,-2
-327,-67,260,197,-293,97,142,340,101,122,-28,-1
-326,-66,260,196,-293,97,142,342,101,123,-28,-1
-325,-66,259,196,-292,97,143,343,102,125,-26,0
-324,-65,259,195,-291,97,143,344,103,125,-26,0
-323,-65,258,194,-290,97,144,347,104,126,-25,1
-322,-65,257,194,-289,96,144,350,106,128,-24,1
-321,-65,256,193,-288,96,143,350,107,129,-24,1
-321,-64,257,193,-289,97,143,351,110,131,-23,2
-321,-64,257,193,-289,97,143,352,112,133,-22,3
-320,-63,257,192,-288,97,142,353,114,134,-21,3
-319,-63,256,191,-287,97,142,355,117,136,-19,4
-319,-62,257,191,-288,98,143,358,121,138,-17,6
-318,-61,257,190,-287,98,144,359,123,139,-17,6
-317,-60,257,189,-287,99,144,360,125,141,-16,6
-315,-59,256,187,-285,99,144,361,125,142,-16,6
-315,-59,256,187,-285,99,145,362,127,144,-14,7
-314,-58,256,186,-285,99,145,365,128,147,-12,9
-313,-57,256,185,-284,100,144,367,130,150,-11,10
-313,-56,257,185,-285,101,143,371,133,154,-8,12
-313,-56,257,185,-285,101,143,375,136,158,-5,14
-312,-55,257,184,-284,101,142,379,140,161,-3,15
-311,-54,257,183,-284,102,142,383,145,164,-2,16
-310,-53,257,182,-283,102,143,386,150,167,1,18
-309,-52,257,181,-283,103,144,389,153,169,3,19
-307,-51,256,179,-281,103,144,391,156,171,4,20
-306,-50,256,178,-281,103,144,394,160,174,7,21
-304,-48,256,176,-280,104,143,397,164,177,10,24
-302,-46,256,174,-279,105,143,400,167,181,13,26
-301,-45,256,173,-278,106,143,404,170,186,16,29
-300,-43,257,172,-278,107,142,407,172,190,19,31
-298,-41,257,170,-277,108,142,410,176,195,23,34
-296,-38,258,167,-277,110,142,411,180,199,25,36
-294,-36,258,165,-276,111,142,414,184,203,28,38
-292,-34,258,163,-275,112,142,416,187,205,30,39
-290,-32,258,161,-274,113,142,419,191,210,33,41
-288,-30,258,159,-273,114,142,422,196,215,37,43
-286,-28,258,157,-272,115,141,423,198,218,40,45
-285,-25,260,155,-272,118,140,425,201,224,44,48
-283,-23,260,153,-271,119,140,427,203,229,48,51
-282,-21,261,152,-271,120,139,428,206,234,52,54
-280,-18,262,149,-271,122,138,429,208,238,55,56
-279,-16,263,148,-271,124,138,431,211,243,59,59
-277,-14,263,146,-270,125,138,433,213,247,62,61
-276,-12,264,144,-270,126,138,433,215,250,64,63
-275,-10,265,143,-270,128,138,433,218,253,67,66
-273,-8,265,141,-269,129,137,431,219,255,69,67
-273,-7,266,140,-269,130,136,430,221,258,72,69
-272,-6,266,139,-269,130,135,428,221,260,74,71
-272,-4,268,138,-270,132,134,428,221,264,76,73
-272,-3,269,138,-270,133,133,426,220,267,78,75
-271,-2,269,137,-270,134,133,426,220,269,81,77
-271,-1,270,136,-270,135,132,424,219,270,82,78
-271,0,271,136,-271,136,132,423,219,271,83,80
-271,1,272,135,-271,137,132,420,219,272,84,81
-270,2,272,134,-271,137,131,416,218,270,84,81
-270,3,273,134,-271,138,131,413,218,269,84,81
-271,3,274,134,-272,139,131,409,217,268,83,82
-272,3,275,135,-273,139,130,405,214,266,82,82
-273,3,276,135,-274,140,130,402,211,264,82,82
-274,3,277,136,-275,140,130,397,206,261,80,82
-276,2,278,137,-277,140,130,392,200,257,78,81
-278,1,279,139,-278,140,130,385,193,252,74,78
-280,-2,278,141,-279,138,131,380,188,248,71,76
-282,-4,278,143,-280,137,131,375,182,241,66,72
-284,-7,277,146,-280,135,131,370,177,234,62,69
-287,-10,277,149,-282,134,132,365,171,227,57,66
-290,-14,276,152,-283,131,131,360,165,220,51,62
-292,-17,275,155,-283,129,131,357,158,213,46,59
-295,-20,275,158,-285,128,131,352,150,206,41,56
-297,-23,274,160,-285,126,131,345,141,198,36,52
-300,-27,273,164,-286,123,132,341,133,192,32,49
-302,-31,271,167,-286,120,131,337,127,186,27,46
-305,-35,270,170,-287,118,132,335,122,180,22,43
-307,-39,268,173,-287,115,132,331,116,173,18,39
-310,-42,268,176,-289,113,132,327,111,166,13,35
-312,-46,266,179,-289,110,132,323,107,160,9,32
-313,-49,264,181,-288,108,131,320,102,154,4,29
-315,-52,263,184,-289,106,131,317,98,149,1,26
-316,-55,261,186,-288,103,129,313,92,143,-2,24
-317,-57,260,187,-288,102,129,310,88,139,-6,21
-318,-60,258,189,-288,99,129,310,85,136,-8,20
-320,-62,258,191,-289,98,129,309,82,131,-11,18
-321,-64,257,193,-289,97,130,307,79,127,-14,15
-322,-66,256,194,-289,95,131,305,76,124,-17,13
-323,-68,255,196,-289,94,131,303,73,120,-20,10
-324,-70,254,197,-289,92,132,300,71,118,-22,8
-325,-72,253,199,-289,91,131,298,68,116,-24,7
-326,-73,253,200,-289,90,131,297,65,114,-25,6
-326,-75,251,201,-288,88,129,295,62,112,-27,4
-327,-76,251,202,-289,88,129,295,61,112,-27,4
-328,-77,251,203,-289,87,129,297,59,111,-28,4
-329,-79,250,204,-289,86,130,298,58,110,-29,4
-329,-80,249,205,-289,85,131,297,58,108,-30,2
-329,-80,249,205,-289,85,131,295,58,106,-32,1
-329,-81,248,205,-288,84,131,294,57,103,-33,0
-329,-82,247,206,-288,83,132,294,57,103,-33,0
-329,-82,247,206,-288,83,132,294,57,102,-34,-1
-329,-82,247,206,-288,83,131,294,57,101,-34,-1
-329,-82,247,206,-288,83,130,293,56,101,-34,0
-329,-81,248,205,-288,84,129,293,54,100,-35,-1
-329,-81,248,205,-288,84,129,293,54,100,-35,-1
-330,-82,248,206,-289,83,130,293,53,101,-34,0
-330,-82,248,206,-289,83,131,291,52,100,-34,-1
-330,-83,247,207,-288,82,131,290,51,99,-35,-2
-330,-83,247,207,-288,82,130,289,50,98,-36,-2
-330,-84,246,207,-288,81,131,289,50,98,-35,-2
-330,-84,246,207,-288,81,131,288,50,98,-36,-2
-330,-84,246,207,-288,81,130,289,49,98,-36,-3
-330,-84,246,207,-288,81,130,290,50,99,-36,-2
-330,-84,246,207,-288,81,129,291,50,100,-35,-2
-330,-84,246,207,-288,81,129,291,50,100,-35,-2
-330,-84,246,207,-288,81,130,292,51,100,-36,-3
-330,-84,246,207,-288,81,131,293,52,100,-36,-3
-330,-84,246,207,-288,81,131,293,52,99,-37,-3
-330,-84,246,207,-288,81,131,293,51,98,-38,-4
-331,-85,246,208,-288,81,132,292,49,97,-38,-4
-330,-84,246,207,-288,81,132,292,48,97,-38,-3
-330,-84,246,207,-288,81,132,290,48,98,-37,-2
-329,-84,245,207,-287,81,131,289,47,97,-37,-2
-329,-83,246,206,-287,82,131,289,46,98,-36,-1
-329,-82,247,206,-288,83,131,288,47,99,-35,0
-328,-82,246,205,-287,82,129,286,47,99,-34,0
-328,-83,245,206,-286,81,130,289,49,101,-32,1
-328,-83,245,206,-286,81,130,291,49,101,-32,1
-328,-83,245,206,-286,81,129,290,48,101,-32,1
-328,-84,244,206,-286,80,128,291,48,100,-33,1
-328,-84,244,206,-286,80,128,292,48,100,-33,0
-328,-84,244,206,-286,80,127,293,47,101,-33,0
-328,-84,244,206,-286,80,127,293,47,101,-33,0
-328,-84,244,206,-286,80,128,294,47,102,-32,0
-327,-83,244,205,-285,81,127,295,46,101,-33,-1
-327,-83,244,205,-285,81,128,296,47,101,-33,-1
-328,-83,245,206,-286,81,129,297,49,102,-33,0
-328,-83,245,206,-286,81,130,296,49,101,-33,-1
-328,-83,245,206,-286,81,130,293,49,100,-34,-1
-328,-83,245,206,-286,81,130,292,48,100,-34,-2
-328,-83,245,206,-286,81,130,292,49,100,-34,-1
-328,-83,245,206,-286,81,130,292,49,100,-34,-1
-327,-83,244,205,-285,81,129,291,48,99,-34,-1
-327,-82,245,205,-286,82,128,293,48,100,-34,-1
-327,-82,245,205,-286,82,128,295,47,100,-34,-1
-328,-82,246,205,-287,82,129,296,47,99,-34,-1
-328,-82,246,205,-287,82,129,296,47,99,-34,-1
-327,-82,245,205,-286,82,130,296,48,98,-34,-1
-327,-82,245,205,-286,82,130,296,49,98,-34,-1
-327,-82,245,205,-286,82,130,294,50,97,-34,-1
-326,-82,244,204,-285,81,130,294,50,97,-34,-1
-326,-81,245,204,-285,82,128,293,48,96,-35,-2
-326,-81,245,204,-285,82,128,292,47,97,-35,-1
-327,-81,246,204,-286,83,128,292,46,98,-34,0
-327,-81,246,204,-286,83,128,291,45,98,-34,-1
-327,-81,246,204,-286,83,128,292,44,98,-34,-1
-327,-82,245,205,-286,82,128,292,43,97,-34,-1
-327,-83,244,205,-285,81,128,290,44,96,-35,-2
-328,-83,245,206,-286,81,129,290,45,96,-35,-1
-328,-84,244,206,-286,80,130,290,46,94,-36,-2
-328,-83,245,206,-286,81,129,290,46,94,-36,-2
-328,-83,245,206,-286,81,129,289,45,93,-36,-1
-327,-82,245,205,-286,82,128,286,43,92,-36,-1
-327,-82,245,205,-286,82,128,286,42,93,-35,-1
-327,-82,245,205,-286,82,128,286,41,93,-35,-1
-327,-82,245,205,-286,82,128,285,39,93,-35,-1
-327,-82,245,205,-286,82,128,284,38,92,-35,-1
-327,-82,245,205,-286,82,128,285,39,92,-35,-1
-327,-83,244,205,-285,81,129,284,39,91,-36,-2
-327,-83,244,205,-285,81,129,284,39,90,-37,-2
-326,-83,243,205,-284,80,128,283,39,89,-37,-3
-326,-83,243,205,-284,80,128,283,40,89,-38,-3
-326,-83,243,205,-284,80,128,283,40,88,-38,-3
-326,-83,243,205,-284,80,128,282,39,87,-38,-3
-327,-83,244,205,-285,81,127,280,37,87,-38,-3
-327,-84,243,206,-285,80,128,280,37,88,-37,-2
-328,-84,244,206,-286,80,129,278,35,87,-37,-3
-328,-85,243,207,-285,79,128,277,33,86,-38,-4
-328,-85,243,207,-285,79,128,277,31,85,-39,-5
-328,-86,242,207,-285,78,128,278,32,86,-38,-5
-328,-86,242,207,-285,78,127,278,32,86,-39,-5
-328,-85,243,207,-285,79,126,279,31,85,-40,-6
-328,-85,243,207,-285,79,125,279,31,86,-40,-6
-328,-85,243,207,-285,79,125,278,31,87,-40,-6
-328,-85,243,207,-285,79,125,277,31,87,-40,-5
-328,-85,243,207,-285,79,126,276,31,87,-40,-5
-328,-85,243,207,-285,79,126,276,30,87,-40,-5
-328,-86,242,207,-285,78,127,277,32,87,-40,-5
-328,-86,242,207,-285,78,127,278,32,86,-41,-6
-328,-86,242,207,-285,78,126,279,33,85,-41,-6
-328,-87,241,208,-284,77,126,280,32,84,-42,-6
-329,-87,242,208,-285,78,125,281,30,84,-42,-6
-329,-87,242,208,-285,78,125,281,30,84,-41,-6
-329,-87,242,208,-285,78,125,280,30,83,-41,-6
-329,-87,242,208,-285,78,125,279,28,83,-41,-6
-329,-87,242,208,-285,78,125,279,27,84,-41,-5
-329,-87,242,208,-285,78,125,279,27,84,-41,-5
-329,-88,241,209,-285,77,126,279,29,84,-41,-5
-329,-88,241,209,-285,77,126,278,29,84,-42,-6
-329,-88,241,209,-285,77,127,278,29,84,-42,-6
-329,-88,241,209,-285,77,127,279,29,84,-42,-6
-329,-88,241,209,-285,77,126,279,29,83,-42,-6
-329,-87,242,208,-285,78,125,278,28,83,-42,-7
-328,-87,241,208,-284,77,125,278,28,83,-42,-7
-329,-87,242,208,-285,78,125,279,27,83,-42,-7
-329,-87,242,208,-285,78,126,280,26,82,-42,-7
-328,-87,241,208,-284,77,126,280,26,82,-42,-7
-328,-87,241,208,-284,77,127,279,25,82,-42,-8
-328,-87,241,208,-284,77,127,277,26,82,-43,-8
-328,-88,240,208,-284,76,126,275,26,82,-43,-8
-327,-88,239,208,-283,76,126,274,26,82,-43,-8
-328,-88,240,208,-284,76,125,273,26,82,-43,-8
-328,-88,240,208,-284,76,124,272,26,82,-43,-8
-329,-88,241,209,-285,77,125,273,27,83,-42,-6
-329,-88,241,209,-285,77,125,275,27,84,-42,-6
"
		-329","
		-88","
		241","
		209","
		-285","
		77","
		125","
		276","
		27","
		84","
		-41","
		-6"
-329,-88,241,209,-285,77,125,276,28,84,-41,-6
-329,-88,241,209,-285,77,126,276,28,84,-41,-6
-328,-88,240,208,-284,76,125,275,27,83,-42,-8
-328,-88,240,208,-284,76,126,274,26,83,-43,-8
-328,-88,240,208,-284,76,125,273,26,82,-43,-9
-328,-87,241,208,-284,77,125,273,26,82,-43,-9
-328,-87,241,208,-284,77,125,272,26,82,-43,-9
-328,-87,241,208,-284,77,125,272,25,82,-43,-8
-328,-87,241,208,-284,77,125,272,26,82,-43,-8
-328,-87,241,208,-284,77,126,272,27,82,-43,-8
-328,-87,241,208,-284,77,126,272,27,82,-43,-8
-328,-88,240,208,-284,76,126,271,26,81,-44,-8
-328,-88,240,208,-284,76,127,270,25,81,-45,-9
-328,-88,240,208,-284,76,126,269,24,81,-45,-9
-329,-89,240,209,-284,76,127,269,23,82,-44,-8
-329,-89,240,209,-284,76,126,269,21,81,-44,-8
-329,-89,240,209,-284,76,125,268,19,82,-43,-8
-328,-88,240,208,-284,76,124,267,17,81,-43,-8
-327,-88,239,208,-283,76,124,268,18,82,-42,-7
-327,-88,239,208,-283,76,124,268,18,82,-42,-7
-327,-88,239,208,-283,76,124,269,19,83,-42,-7
-327,-88,239,208,-283,76,124,269,21,83,-42,-7
-327,-88,239,208,-283,76,124,269,22,83,-42,-7
-327,-88,239,208,-283,76,124,269,23,83,-42,-8
-327,-89,238,208,-282,75,124,270,22,82,-43,-8
-327,-89,238,208,-282,75,124,270,23,81,-43,-8
-327,-88,239,208,-283,76,124,270,23,81,-43,-8
-328,-89,239,209,-283,75,125,270,24,81,-42,-8
-328,-89,239,209,-283,75,125,271,24,81,-43,-8
-328,-89,239,209,-283,75,125,271,24,81,-43,-8
-329,-89,240,209,-284,76,125,272,23,81,-44,-9
-329,-90,239,210,-284,75,126,273,23,81,-44,-9
-328,-90,238,209,-283,74,127,274,22,81,-44,-9
-327,-90,237,209,-282,74,127,275,23,81,-44,-8
-327,-89,238,208,-282,75,126,272,22,80,-45,-9
-327,-89,238,208,-282,75,126,270,22,80,-44,-9
-327,-89,238,208,-282,75,125,269,22,80,-44,-9
-327,-89,238,208,-282,75,125,268,23,80,-43,-9
-327,-89,238,208,-282,75,124,268,23,80,-43,-8
-327,-89,238,208,-282,75,124,268,22,80,-43,-8
-327,-89,238,208,-282,75,124,270,21,80,-43,-8
-327,-89,238,208,-282,75,124,272,21,79,-43,-8
-327,-89,238,208,-282,75,124,273,22,80,-43,-8
-326,-89,237,208,-281,74,124,273,22,80,-43,-8
-326,-89,237,208,-281,74,123,273,22,80,-43,-9
-326,-89,237,208,-281,74,123,273,23,80,-43,-9
-326,-88,238,207,-282,75,124,273,23,81,-43,-8
-326,-88,238,207,-282,75,124,273,24,81,-43,-8
-326,-88,238,207,-282,75,124,273,23,81,-43,-8
-326,-88,238,207,-282,75,124,273,22,81,-43,-8
-326,-88,238,207,-282,75,124,272,22,81,-43,-8
-327,-88,239,208,-283,76,124,271,22,80,-44,-8
-327,-89,238,208,-282,75,124,271,21,79,-45,-9
-327,-89,238,208,-282,75,124,270,21,78,-45,-9
-327,-89,238,208,-282,75,124,270,22,78,-46,-10
-327,-89,238,208,-282,75,124,269,23,78,-46,-10
-327,-89,238,208,-282,75,124,269,23,77,-46,-10
-326,-88,238,207,-282,75,124,270,24,77,-46,-10
-325,-88,237,207,-281,75,124,269,24,76,-46,-10
-325,-87,238,206,-281,76,124,270,25,76,-46,-10
-326,-87,239,207,-282,76,124,270,24,76,-47,-11
-326,-87,239,207,-282,76,124,270,23,75,-47,-11
-326,-88,238,207,-282,75,125,270,21,76,-46,-10
-326,-88,238,207,-282,75,125,269,20,76,-46,-10
-326,-88,238,207,-282,75,125,268,20,77,-45,-10
-326,-88,238,207,-282,75,125,266,19,77,-45,-9
-326,-88,238,207,-282,75,125,263,18,78,-44,-8
-326,-87,239,207,-282,76,124,262,18,78,-44,-9
-326,-88,238,207,-282,75,124,263,20,80,-43,-7
-326,-88,238,207,-282,75,124,264,20,80,-42,-7
-326,-88,238,207,-282,75,123,265,19,80,-42,-7
-326,-89,237,208,-281,74,123,266,19,80,-43,-7
-326,-88,238,207,-282,75,122,268,19,79,-43,-7
-326,-88,238,207,-282,75,122,268,19,79,-43,-7
-326,-88,238,207,-282,75,122,267,19,78,-44,-8
-325,-87,238,206,-281,76,121,264,18,77,-45,-9
-325,-86,239,206,-282,77,122,264,18,78,-45,-9
-324,-85,239,205,-281,77,121,263,18,78,-45,-9
-324,-84,240,204,-282,78,123,264,20,79,-44,-9
-323,-83,240,203,-281,79,123,264,21,80,-44,-9
-322,-82,240,202,-281,79,123,267,21,80,-43,-8
-322,-81,241,202,-281,80,125,270,23,81,-42,-7
-321,-80,241,201,-281,81,125,270,24,81,-42,-7
-321,-80,241,201,-281,81,125,271,26,81,-41,-7
-320,-80,240,200,-280,80,125,271,26,81,-41,-6
-319,-80,239,200,-279,80,125,272,25,82,-41,-6
-318,-81,237,200,-277,78,125,271,24,82,-40,-5
-318,-81,237,200,-277,78,126,272,24,83,-40,-5
-317,-81,236,199,-276,78,126,272,23,82,-41,-5
-318,-82,236,200,-277,77,129,274,24,83,-40,-5
-318,-81,237,200,-277,78,131,276,25,84,-40,-5
-318,-80,238,199,-278,79,133,277,26,84,-40,-5
-318,-79,239,199,-278,80,136,279,30,85,-38,-4
-318,-77,241,198,-279,82,137,281,32,86,-38,-4
-317,-74,243,196,-280,85,139,282,33,87,-37,-3
-316,-72,244,194,-280,86,140,284,35,88,-35,-2
-315,-71,244,193,-279,87,140,284,36,89,-35,-1
-315,-70,245,193,-280,88,140,285,36,89,-34,-1
-314,-70,244,192,-279,87,140,284,36,89,-35,-1
-314,-69,245,192,-279,88,139,283,36,88,-35,-1
-314,-70,244,192,-279,87,140,283,37,89,-35,0
-314,-71,243,193,-278,86,139,282,36,88,-35,-1
-313,-72,241,193,-277,85,137,280,35,87,-36,-2
-312,-73,239,193,-275,83,135,279,33,86,-36,-2
-312,-75,237,194,-274,81,133,279,33,86,-35,-2
-311,-77,234,194,-272,79,130,277,30,85,-36,-2
-311,-79,232,195,-271,77,128,275,27,84,-36,-2
-311,-80,231,196,-271,76,126,273,24,83,-37,-3
-312,-82,230,197,-271,74,125,271,24,83,-37,-3
-313,-83,230,198,-271,74,124,270,23,83,-37,-3
-314,-84,230,199,-272,73,123,268,20,82,-39,-4
-315,-85,230,200,-272,73,123,267,19,82,-39,-4
-315,-86,229,201,-272,72,121,264,19,80,-41,-5
-316,-88,228,202,-272,70,121,262,19,79,-41,-6
-317,-88,229,203,-273,71,120,262,18,79,-41,-6
-318,-89,229,204,-273,70,120,262,17,77,-43,-8
-319,-90,229,205,-274,70,120,262,17,76,-44,-9
-321,-90,231,206,-276,71,120,262,17,75,-44,-10
-322,-91,231,207,-276,70,120,263,16,74,-46,-11
-323,-91,232,207,-277,71,122,265,17,74,-47,-12
-324,-91,233,208,-278,71,122,265,16,73,-48,-13
-324,-91,233,208,-278,71,123,264,16,72,-48,-13
-325,-91,234,208,-279,72,123,263,16,72,-48,-13
-325,-91,234,208,-279,72,123,262,16,72,-48,-13
-325,-91,234,208,-279,72,123,260,15,72,-48,-13
-325,-91,234,208,-279,72,122,259,15,72,-47,-12
-325,-91,234,208,-279,72,122,258,14,73,-47,-11
-326,-91,235,209,-280,72,121,258,15,74,-46,-10
-326,-91,235,209,-280,72,121,258,15,74,-45,-11
-325,-92,233,209,-279,71,121,259,15,74,-45,-10
-325,-92,233,209,-279,71,121,259,16,74,-45,-10
-325,-92,233,209,-279,71,121,259,17,74,-45,-10
-325,-92,233,209,-279,71,120,260,18,74,-45,-10
-325,-92,233,209,-279,71,120,260,18,73,-46,-11
-326,-91,235,209,-280,72,120,259,17,73,-46,-11
-326,-91,235,209,-280,72,120,259,16,73,-46,-11
-326,-91,235,209,-280,72,120,259,15,73,-47,-11
-326,-91,235,209,-280,72,120,259,14,73,-47,-11
-326,-90,236,208,-281,73,119,258,13,73,-47,-12
-326,-90,236,208,-281,73,120,259,13,74,-47,-11
-326,-90,236,208,-281,73,120,259,14,74,-47,-12
-325,-90,235,208,-280,73,120,259,15,74,-47,-12
-325,-90,235,208,-280,73,121,259,17,75,-46,-12
-325,-90,235,208,-280,73,121,260,18,75,-46,-12
-325,-90,235,208,-280,73,121,260,19,76,-46,-12
-325,-90,235,208,-280,73,122,260,19,76,-46,-11
-325,-90,235,208,-280,73,122,262,20,76,-45,-11
-325,-90,235,208,-280,73,124,264,21,76,-46,-11
-325,-91,234,208,-279,72,125,267,22,75,-47,-12
-326,-93,233,210,-279,70,129,271,23,74,-48,-14
-327,-95,232,211,-279,69,133,277,25,72,-50,-16
-327,-98,229,213,-278,66,138,283,27,71,-53,-19
-327,-100,227,214,-277,64,143,291,31,68,-56,-22
-327,-102,225,215,-276,62,150,300,37,67,-58,-25
-327,-101,226,214,-276,63,155,308,44,66,-61,-27
-325,-97,228,211,-276,66,161,318,53,67,-61,-27
-323,-92,231,208,-277,70,168,332,67,72,-56,-23
-318,-85,233,202,-275,74,174,347,83,81,-49,-18
-312,-75,237,194,-274,81,179,364,102,96,-38,-8
-305,-63,242,184,-273,90,183,381,126,116,-23,3
-296,-50,246,173,-271,98,187,398,155,143,-2,19
-287,-34,253,161,-270,110,190,411,186,174,22,37
-278,-15,263,147,-270,124,188,415,216,210,50,58
-269,7,276,131,-272,142,184,409,241,251,83,84
-262,30,292,116,-277,161,176,388,255,295,118,111
-257,54,311,102,-284,183,162,351,253,338,153,139
-256,77,333,90,-294,205,145,298,235,383,189,167
-257,100,357,79,-307,229,119,229,206,430,226,195
-260,119,379,71,-319,249,86,152,172,478,262,222
-264,130,394,67,-329,262,50,76,138,521,291,242
-268,127,395,71,-331,261,18,12,108,555,309,251
-273,112,385,81,-329,249,-12,-41,80,571,310,245
-278,87,365,96,-321,226,-36,-78,56,570,299,231
-284,57,341,114,-312,199,-52,-100,31,550,273,207
-292,22,314,135,-303,168,-59,-106,3,507,232,173
-303,-12,291,158,-297,140,-65,-106,-34,439,179,135
-316,-37,279,177,-297,121,-72,-105,-78,354,121,97
-330,-55,275,193,-302,110,-75,-98,-119,265,66,64
-343,-70,273,207,-308,102,-75,-83,-152,179,14,32
-354,-84,270,219,-312,93,-70,-59,-172,104,-30,5
-360,-94,266,227,-313,86,-64,-31,-181,46,-63,-16
-363,-101,262,232,-312,81,-53,0,-176,12,-84,-31
-362,-105,257,234,-309,76,-37,35,-158,-1,-93,-40
-357,-106,251,232,-304,73,-19,70,-131,4,-93,-42
-351,-103,248,227,-299,73,-3,102,-102,17,-86,-39
-345,-97,248,221,-296,76,11,129,-76,34,-76,-34
-339,-92,247,216,-293,78,26,154,-53,48,-68,-29
-334,-88,246,211,-290,79,43,176,-31,60,-60,-23
-330,-83,247,207,-288,82,58,194,-12,70,-53,-18
-327,-79,248,203,-287,85,70,211,5,79,-46,-13
-325,-76,249,201,-287,87,81,225,18,85,-43,-10
-324,-75,249,200,-286,87,91,239,28,90,-38,-6
-322,-75,247,199,-284,86,99,250,35,93,-36,-5
-322,-75,247,199,-284,86,106,260,41,95,-35,-4
-322,-77,245,200,-283,84,111,270,46,96,-33,-3
-321,-78,243,200,-282,83,115,277,49,96,-33,-3
-321,-79,242,200,-281,82,119,282,51,96,-34,-4
-320,-80,240,200,-280,80,121,285,54,95,-35,-6
-320,-80,240,200,-280,80,123,286,55,94,-36,-7
-319,-81,238,200,-278,79,125,286,56,94,-37,-7
-319,-81,238,200,-278,79,126,285,57,93,-37,-8
-318,-81,237,200,-277,78,128,285,57,94,-37,-8
-318,-80,238,199,-278,79,127,283,57,94,-37,-8
-318,-80,238,199,-278,79,128,282,57,94,-36,-8
-318,-80,238,199,-278,79,128,282,57,95,-36,-7
-318,-80,238,199,-278,79,129,283,56,96,-35,-7
-318,-80,238,199,-278,79,130,284,55,97,-35,-6
-318,-80,238,199,-278,79,131,284,55,97,-35,-6
-318,-80,238,199,-278,79,132,286,56,97,-35,-7
-318,-80,238,199,-278,79,133,287,56,98,-35,-7
-317,-80,237,199,-277,79,134,289,57,99,-35,-7
-317,-80,237,199,-277,79,135,290,59,99,-35,-7
-317,-79,238,198,-277,80,135,292,62,100,-34,-7
-317,-79,238,198,-277,80,135,291,63,100,-33,-6
-317,-78,239,198,-278,81,135,288,62,100,-34,-6
-317,-78,239,198,-278,81,135,289,62,101,-33,-5
-316,-78,238,197,-277,80,135,291,62,102,-32,-4
-316,-78,238,197,-277,80,136,292,61,103,-31,-4
-315,-78,237,197,-276,80,136,291,60,103,-31,-4
-314,-78,236,196,-275,79,135,292,60,103,-31,-4
-314,-78,236,196,-275,79,136,295,61,105,-31,-4
-314,-78,236,196,-275,79,136,296,63,105,-30,-4
-313,-77,236,195,-274,80,136,296,64,107,-29,-4
-313,-77,236,195,-274,80,136,297,66,108,-29,-3
-314,-77,237,196,-275,80,136,299,68,110,-28,-2
-314,-77,237,196,-275,80,136,301,70,110,-27,-2
-313,-77,236,195,-274,80,136,302,71,111,-27,-1
-313,-77,236,195,-274,80,136,304,73,112,-26,-1
-312,-76,236,194,-274,80,135,304,73,111,-27,-2
-312,-76,236,194,-274,80,135,305,75,111,-27,-2
-312,-76,236,194,-274,80,136,306,76,112,-27,-2
-311,-75,236,193,-273,81,135,306,76,112,-27,-2
-311,-75,236,193,-273,81,135,307,78,113,-26,-2
-312,-75,237,194,-274,81,137,308,80,115,-24,-1
-312,-74,238,193,-275,82,136,308,81,115,-25,-1
-311,-74,237,193,-274,82,137,310,82,116,-23,0
-311,-74,237,193,-274,82,137,312,84,117,-22,0
-310,-74,236,192,-273,81,138,313,86,118,-22,0
-310,-74,236,192,-273,81,139,314,87,118,-22,1
-310,-73,237,192,-273,82,138,313,87,118,-23,0
-310,-73,237,192,-273,82,138,313,89,119,-22,0
-309,-73,236,191,-272,82,138,313,91,120,-22,1
-309,-72,237,191,-273,83,139,313,93,122,-20,2
-309,-72,237,191,-273,83,139,314,95,124,-19,4
-308,-71,237,190,-272,83,138,314,96,124,-18,4
-307,-71,236,189,-271,83,138,315,98,126,-17,5
-307,-70,237,189,-272,84,138,315,98,127,-17,5
-307,-70,237,189,-272,84,138,316,100,128,-16,6
-306,-70,236,188,-271,83,139,317,102,129,-15,6
-306,-69,237,188,-271,84,139,317,104,131,-14,6
-305,-68,237,187,-271,85,139,317,105,132,-14,6
-305,-67,238,186,-271,86,139,317,107,134,-13,7
-304,-66,238,185,-271,86,138,317,108,135,-11,7
-303,-66,237,185,-270,86,138,317,110,138,-9,9
-302,-65,237,184,-269,86,138,317,111,140,-8,9
-302,-64,238,183,-270,87,138,319,113,142,-6,11
-301,-64,237,183,-269,87,138,321,115,144,-5,11
-300,-63,237,182,-268,87,139,325,119,146,-4,12
-299,-63,236,181,-267,87,139,326,121,147,-3,12
-298,-62,236,180,-267,87,140,328,124,149,-2,14
-297,-62,235,180,-266,87,140,326,125,151,-1,14
-296,-60,236,178,-266,88,140,325,127,154,0,15
-295,-60,235,178,-265,88,140,326,130,157,3,17
-294,-59,235,177,-264,88,139,328,131,160,6,18
-293,-57,236,175,-264,90,138,328,133,164,8,20
-291,-56,235,174,-263,90,137,331,136,167,10,21
-290,-55,235,173,-262,90,138,338,141,172,14,23
-288,-54,234,171,-261,90,137,344,145,176,16,25
-287,-53,234,170,-260,91,138,347,148,180,18,26
-285,-51,234,168,-259,92,138,348,152,184,21,28
-284,-49,235,167,-259,93,138,351,157,189,24,30
-283,-48,235,166,-259,94,138,354,161,193,26,32
-282,-46,236,164,-259,95,137,356,164,197,30,35
-280,-44,236,162,-258,96,136,358,167,202,33,38
-279,-42,237,161,-258,98,135,361,170,206,37,40
-278,-40,238,159,-258,99,134,364,173,211,40,42
-276,-39,237,158,-256,99,133,367,176,215,44,44
-273,-37,236,155,-254,100,132,369,179,219,46,46
-271,-35,236,153,-253,101,133,372,183,224,50,48
-269,-33,236,151,-252,102,132,373,186,228,53,50
-268,-31,237,150,-252,103,132,376,190,234,57,53
-266,-28,238,147,-252,105,132,378,194,239,60,56
-264,-26,238,145,-251,106,131,378,197,243,64,58
-263,-24,239,144,-251,108,130,379,200,247,67,61
-262,-22,240,142,-251,109,129,380,202,251,70,63
-261,-20,241,141,-251,111,128,381,204,255,73,66
-260,-18,242,139,-251,112,128,382,206,259,76,68
-259,-16,243,138,-251,114,127,382,208,262,78,71
-258,-15,243,137,-250,114,128,383,210,265,82,74
-257,-13,244,135,-250,116,127,384,212,268,84,75
-255,-11,244,133,-249,117,126,382,212,269,85,77
-254,-9,245,132,-249,118,125,381,212,272,87,78
-253,-7,246,130,-249,120,124,379,212,274,89,79
-253,-5,248,129,-250,122,124,377,213,276,92,82
-252,-4,248,128,-250,122,123,374,213,277,93,83
-252,-2,250,127,-251,124,122,373,211,278,93,84
-252,-2,250,127,-251,124,122,371,211,278,94,84
-253,-1,252,127,-252,126,122,370,209,278,94,85
-253,-1,252,127,-252,126,122,367,206,276,93,85
"
		-254","
		-1","
		253","
		128","
		-253","
		126","
		122","
		366","
		204","
		275","
		93","
		86"
-255,-1,254,128,-254,127,122,361,200,272,92,85
-257,-1,256,129,-256,128,122,357,196,269,90,85
-258,-2,256,130,-257,127,121,353,190,265,87,83
-260,-3,257,132,-258,127,121,349,186,260,85,82
-262,-4,258,133,-260,127,121,345,181,255,82,79
-264,-5,259,135,-261,127,121,342,175,248,78,76
-267,-8,259,138,-263,126,122,340,170,242,73,74
-269,-10,259,140,-264,125,124,337,164,235,69,71
-271,-13,258,142,-264,123,124,332,157,227,63,66
-274,-16,258,145,-266,121,126,327,151,218,57,62
-276,-19,257,148,-266,119,127,322,145,210,51,58
-279,-22,257,151,-268,118,128,317,140,202,46,55
-282,-25,257,154,-269,116,128,312,134,194,40,51
-285,-28,257,157,-271,115,128,308,127,187,35,47
-287,-32,255,160,-271,112,129,303,121,179,30,44
-290,-35,255,163,-272,110,129,299,113,172,24,40
-293,-39,254,166,-273,108,130,295,105,166,20,37
-294,-42,252,168,-273,105,130,293,99,160,15,33
-296,-46,250,171,-273,102,131,290,93,154,11,30
-298,-50,248,174,-273,99,131,287,87,149,7,28
-300,-53,247,177,-273,97,130,284,81,143,2,24
-301,-55,246,178,-273,96,130,283,78,138,-2,21
-302,-58,244,180,-273,93,130,282,76,135,-4,19
-304,-60,244,182,-274,92,129,279,74,130,-7,17
-306,-62,244,184,-275,91,129,278,70,126,-10,15
-307,-64,243,186,-275,90,129,277,67,122,-13,13
-308,-65,243,187,-275,89,130,276,64,118,-16,11
-309,-68,241,189,-275,87,130,275,61,114,-18,9
-310,-70,240,190,-275,85,130,275,59,111,-21,7
-310,-71,239,191,-274,84,131,275,57,108,-23,6
-311,-73,238,192,-274,83,131,275,55,107,-24,5
-311,-75,236,193,-273,81,130,274,53,104,-26,3
-312,-75,237,194,-274,81,131,272,52,103,-27,2
-313,-76,237,195,-275,81,130,271,50,102,-28,1
-313,-77,236,195,-274,80,130,271,49,102,-28,1
-314,-78,236,196,-275,79,130,271,48,101,-28,1
-314,-78,236,196,-275,79,129,270,46,100,-29,0
-314,-79,235,197,-274,78,130,270,46,100,-29,1
-313,-80,233,197,-273,77,129,271,46,99,-30,0
-313,-81,232,197,-272,76,129,272,46,98,-31,0
-313,-81,232,197,-272,76,129,272,46,97,-32,-1
-314,-82,232,198,-273,75,130,272,46,97,-32,-1
-315,-82,233,199,-274,76,130,272,46,96,-32,-2
-316,-82,234,199,-275,76,130,273,46,95,-33,-2
-316,-83,233,200,-274,75,131,273,47,96,-33,-2
-317,-83,234,200,-275,76,131,272,46,96,-33,-3
-317,-83,234,200,-275,76,131,271,45,96,-33,-3
-317,-83,234,200,-275,76,131,270,46,96,-34,-3
-317,-83,234,200,-275,76,131,270,46,96,-34,-3
-316,-82,234,199,-275,76,130,269,44,95,-34,-4
-316,-82,234,199,-275,76,130,267,44,95,-34,-3
-316,-82,234,199,-275,76,130,266,43,96,-33,-3
-315,-81,234,198,-274,77,130,267,43,96,-33,-2
-315,-81,234,198,-274,77,130,268,43,97,-32,-2
-315,-81,234,198,-274,77,130,267,43,98,-32,-1
-315,-81,234,198,-274,77,130,267,44,98,-31,-1
-315,-81,234,198,-274,77,131,268,45,99,-31,-1
-315,-81,234,198,-274,77,131,269,46,99,-31,-1
-314,-81,233,198,-273,76,130,268,45,98,-32,-2
-314,-81,233,198,-273,76,131,267,45,98,-32,-2
-314,-81,233,198,-273,76,131,268,44,98,-32,-3
-314,-81,233,198,-273,76,131,268,44,98,-32,-3
-314,-81,233,198,-273,76,131,268,44,98,-32,-3
-314,-80,234,197,-274,77,131,268,44,98,-32,-2
-314,-80,234,197,-274,77,131,267,44,98,-31,-2
-314,-80,234,197,-274,77,131,266,44,99,-31,-2
-314,-80,234,197,-274,77,130,264,44,99,-30,-1
-314,-80,234,197,-274,77,130,263,44,100,-30,-1
-313,-80,233,197,-273,77,130,264,43,100,-30,-1
-313,-80,233,197,-273,77,129,265,44,101,-29,-1
-313,-80,233,197,-273,77,129,265,44,101,-29,-1
-313,-80,233,197,-273,77,129,266,45,102,-29,0
-312,-80,232,196,-272,76,128,268,45,102,-29,-1
-312,-79,233,196,-272,77,128,268,46,102,-29,-1
-313,-79,234,196,-273,78,128,267,46,102,-29,-1
-313,-79,234,196,-273,78,128,267,46,102,-29,-1
-313,-79,234,196,-273,78,128,268,47,102,-29,-2
-313,-79,234,196,-273,78,129,268,48,102,-29,-2
-313,-79,234,196,-273,78,129,269,48,101,-30,-2
-313,-79,234,196,-273,78,129,269,48,101,-30,-2
-312,-78,234,195,-273,78,130,270,47,100,-30,-2
-312,-78,234,195,-273,78,130,271,45,100,-30,-2
-312,-78,234,195,-273,78,130,271,44,100,-30,-2
-312,-77,235,195,-273,79,129,271,43,99,-31,-2
-312,-77,235,195,-273,79,129,270,42,99,-30,-2
-312,-77,235,195,-273,79,129,271,42,99,-30,-2
-312,-77,235,195,-273,79,129,271,42,99,-30,-2
-312,-77,235,195,-273,79,129,270,43,99,-30,-2
-311,-78,233,195,-272,78,129,270,44,99,-30,-2
-311,-78,233,195,-272,78,128,270,44,99,-30,-2
-311,-79,232,195,-271,77,129,271,45,99,-29,-1
-311,-79,232,195,-271,77,128,272,46,99,-30,-1
-311,-79,232,195,-271,77,128,271,45,98,-30,-1
-312,-79,233,196,-272,77,128,272,45,98,-31,-1
-312,-78,234,195,-273,78,128,273,45,98,-31,-1
-312,-78,234,195,-273,78,128,274,45,97,-31,-1
-312,-78,234,195,-273,78,128,273,45,96,-31,-1
-313,-78,235,196,-274,79,128,272,45,95,-32,-1
-312,-78,234,195,-273,78,129,271,44,94,-32,-2
-312,-78,234,195,-273,78,129,271,44,94,-33,-2
-312,-78,234,195,-273,78,129,269,43,92,-33,-2
-312,-78,234,195,-273,78,128,268,42,91,-33,-2
-312,-78,234,195,-273,78,128,267,41,91,-33,-3
-312,-78,234,195,-273,78,128,267,40,90,-33,-3
-312,-78,234,195,-273,78,127,267,39,90,-34,-3
-313,-78,235,196,-274,79,127,266,38,89,-34,-4
-314,-79,235,197,-274,78,128,267,39,89,-34,-3
-313,-79,234,196,-273,78,127,265,37,88,-35,-5
-313,-79,234,196,-273,78,128,264,37,87,-36,-5
-313,-80,233,197,-273,77,129,262,38,87,-36,-5
-314,-80,234,197,-274,77,129,260,37,86,-37,-5
-314,-80,234,197,-274,77,129,260,35,85,-37,-5
-314,-80,234,197,-274,77,128,259,33,84,-37,-5
-315,-80,235,198,-275,78,128,258,32,84,-37,-6
-315,-80,235,198,-275,78,127,259,32,83,-38,-6
-315,-80,235,198,-275,78,127,260,31,83,-38,-6
-316,-80,236,198,-276,78,128,261,32,83,-37,-5
-315,-80,235,198,-275,78,127,259,32,82,-39,-6
-315,-80,235,198,-275,78,127,258,32,82,-39,-7
-315,-80,235,198,-275,78,127,257,31,81,-39,-7
-314,-80,234,197,-274,77,127,256,30,81,-40,-7
-315,-80,235,198,-275,78,126,256,29,81,-40,-7
-315,-81,234,198,-274,77,127,258,27,82,-39,-6
-315,-81,234,198,-274,77,126,258,25,82,-39,-7
-316,-82,234,199,-275,76,126,258,25,82,-39,-7
-316,-82,234,199,-275,76,126,258,24,82,-39,-7
-316,-82,234,199,-275,76,126,258,24,81,-40,-8
-316,-83,233,200,-274,75,127,258,24,82,-39,-7
-316,-83,233,200,-274,75,128,257,25,82,-39,-7
-315,-83,232,199,-273,75,127,255,25,81,-40,-8
-315,-83,232,199,-273,75,127,255,25,81,-40,-8
-315,-82,233,199,-274,76,126,255,25,81,-40,-8
-316,-82,234,199,-275,76,125,256,25,81,-40,-8
-317,-82,235,200,-276,77,126,257,25,82,-39,-8
-317,-82,235,200,-276,77,125,257,25,81,-39,-8
-317,-82,235,200,-276,77,125,257,25,81,-40,-8
-317,-82,235,200,-276,77,125,257,25,81,-40,-9
-317,-83,234,200,-275,76,125,257,25,80,-41,-9
-316,-83,233,200,-274,75,125,257,25,79,-41,-9
-316,-83,233,200,-274,75,126,258,26,79,-41,-9
-316,-83,233,200,-274,75,126,258,26,79,-42,-10
-315,-83,232,199,-273,75,126,258,25,77,-43,-10
-315,-82,233,199,-274,76,126,258,25,77,-42,-10
-315,-82,233,199,-274,76,127,257,25,77,-42,-10
-315,-82,233,199,-274,76,127,256,25,77,-42,-10
-315,-82,233,199,-274,76,127,254,25,77,-43,-10
-315,-82,233,199,-274,76,127,254,25,77,-43,-10
-315,-82,233,199,-274,76,126,253,25,77,-43,-10
-315,-82,233,199,-274,76,126,253,26,77,-43,-11
-316,-83,233,200,-274,75,127,254,28,78,-42,-10
-316,-83,233,200,-274,75,126,254,27,78,-42,-10
-316,-83,233,200,-274,75,125,255,25,78,-42,-10
-316,-83,233,200,-274,75,125,255,25,79,-41,-10
-316,-83,233,200,-274,75,125,254,24,79,-41,-10
-316,-83,233,200,-274,75,124,254,23,79,-41,-10
-316,-83,233,200,-274,75,124,255,21,79,-41,-10
-315,-83,232,199,-273,75,123,254,20,78,-42,-11
-315,-83,232,199,-273,75,124,253,21,78,-42,-12
-315,-83,232,199,-273,75,124,253,21,77,-43,-12
-316,-84,232,200,-274,74,125,253,21,78,-42,-12
-316,-84,232,200,-274,74,125,253,21,77,-42,-12
-316,-84,232,200,-274,74,125,253,22,77,-43,-12
-316,-84,232,200,-274,74,125,253,23,77,-42,-12
-316,-83,233,200,-274,75,125,253,24,77,-42,-11
-316,-83,233,200,-274,75,126,252,24,77,-42,-11
-316,-82,234,199,-275,76,125,250,24,77,-43,-11
-316,-82,234,199,-275,76,125,250,24,77,-43,-11
-316,-83,233,200,-274,75,126,250,23,78,-42,-11
-315,-83,232,199,-273,75,125,248,20,77,-43,-12
-315,-84,231,200,-273,74,126,248,21,78,-43,-11
-316,-84,232,200,-274,74,126,248,21,78,-43,-12
-316,-84,232,200,-274,74,125,249,21,77,-43,-12
-316,-85,231,201,-273,73,124,249,21,77,-43,-12
-316,-85,231,201,-273,73,123,248,22,77,-44,-13
-317,-85,232,201,-274,74,124,250,24,78,-43,-12
-317,-85,232,201,-274,74,124,252,24,77,-43,-12
-317,-85,232,201,-274,74,124,252,23,77,-44,-12
-317,-85,232,201,-274,74,124,252,24,77,-44,-13
-317,-85,232,201,-274,74,125,252,25,76,-44,-13
-316,-85,231,201,-273,73,124,252,25,75,-45,-14
-316,-84,232,200,-274,74,125,252,26,75,-46,-14
-316,-84,232,200,-274,74,125,252,27,75,-46,-14
-316,-83,233,200,-274,75,125,252,26,75,-46,-13
-316,-83,233,200,-274,75,125,252,25,75,-45,-13
-315,-83,232,199,-273,75,124,251,24,74,-46,-14
-315,-83,232,199,-273,75,124,251,22,74,-46,-14
-315,-83,232,199,-273,75,124,251,21,74,-46,-14
-315,-84,231,200,-273,74,125,251,21,75,-44,-13
-315,-84,231,200,-273,74,125,250,22,75,-44,-13
-315,-84,231,200,-273,74,124,251,22,75,-44,-13
-316,-84,232,200,-274,74,124,251,22,75,-44,-13
-316,-85,231,201,-273,73,124,250,23,75,-44,-14
-316,-85,231,201,-273,73,124,250,23,75,-44,-14
-316,-84,232,200,-274,74,124,251,23,75,-45,-13
-316,-84,232,200,-274,74,124,251,23,75,-45,-13
-317,-84,233,201,-275,75,125,250,24,74,-45,-14
-317,-84,233,201,-275,75,125,249,25,74,-46,-14
-316,-83,233,200,-274,75,125,250,26,73,-46,-14
-316,-83,233,200,-274,75,125,250,26,73,-46,-14
-316,-83,233,200,-274,75,126,249,25,73,-46,-14
-316,-83,233,200,-274,75,126,248,24,73,-46,-14
-316,-83,233,200,-274,75,125,248,23,73,-46,-14
-316,-83,233,200,-274,75,125,248,23,74,-46,-14
-316,-83,233,200,-274,75,125,247,22,74,-45,-13
-316,-83,233,200,-274,75,124,247,22,75,-45,-13
-316,-83,233,200,-274,75,124,248,22,75,-45,-13
-316,-83,233,200,-274,75,123,249,22,76,-45,-14
-316,-83,233,200,-274,75,124,250,22,75,-45,-14
-316,-83,233,200,-274,75,124,251,22,75,-46,-14
-316,-84,232,200,-274,74,124,251,23,74,-47,-15
-316,-84,232,200,-274,74,125,251,23,74,-47,-15
-316,-84,232,200,-274,74,125,251,24,73,-47,-15
-316,-84,232,200,-274,74,126,249,24,73,-47,-15
-316,-83,233,200,-274,75,126,248,24,73,-46,-15
-316,-83,233,200,-274,75,126,247,23,73,-46,-14
-316,-82,234,199,-275,76,125,245,21,72,-46,-15
-315,-82,233,199,-274,76,125,244,21,73,-46,-15
-315,-82,233,199,-274,76,124,245,22,73,-45,-14
-315,-82,233,199,-274,76,124,247,22,74,-45,-14
-315,-82,233,199,-274,76,124,247,22,74,-45,-14
-314,-82,232,198,-273,75,124,246,23,75,-45,-14
-313,-81,232,197,-272,76,124,246,24,75,-45,-14
-313,-79,234,196,-273,78,124,248,24,75,-45,-14
-312,-78,234,195,-273,78,126,250,26,76,-44,-13
-312,-76,236,194,-274,80,126,251,27,76,-44,-13
-311,-75,236,193,-273,81,127,254,28,76,-43,-13
-310,-74,236,192,-273,81,129,257,30,77,-42,-12
-309,-73,236,191,-272,82,130,256,29,77,-42,-12
-309,-73,236,191,-272,82,130,254,28,77,-42,-12
-308,-74,234,191,-271,80,130,253,28,77,-42,-12
-308,-74,234,191,-271,80,130,252,28,78,-42,-12
-308,-75,233,192,-270,79,129,251,27,78,-42,-12
-309,-75,234,192,-271,80,129,251,27,79,-41,-11
-310,-75,235,193,-272,80,129,253,28,80,-41,-11
-310,-75,235,193,-272,80,130,256,30,81,-41,-11
-310,-74,236,192,-273,81,132,258,30,81,-40,-10
-310,-73,237,192,-273,82,134,259,31,81,-40,-10
-309,-72,237,191,-273,83,137,263,35,83,-38,-9
-308,-70,238,189,-273,84,139,265,37,84,-37,-8
-307,-69,238,188,-272,85,141,266,39,84,-37,-8
-306,-67,239,187,-272,86,142,266,41,85,-36,-7
-305,-66,239,186,-272,87,142,266,42,85,-36,-7
-305,-66,239,186,-272,87,142,265,42,86,-35,-6
-304,-66,238,185,-271,86,141,264,42,85,-35,-6
-304,-66,238,185,-271,86,140,263,41,85,-35,-6
-304,-66,238,185,-271,86,139,262,40,85,-35,-6
-304,-68,236,186,-270,84,137,262,39,85,-35,-6
-304,-69,235,187,-269,83,135,260,36,83,-36,-7
-304,-71,233,188,-268,81,133,260,35,83,-37,-7
-304,-73,231,189,-267,79,131,258,33,82,-38,-9
-304,-75,229,190,-266,77,129,256,31,81,-39,-9
-304,-77,227,191,-265,75,127,253,29,79,-40,-10
-304,-80,224,192,-264,72,125,252,28,78,-41,-11
-304,-81,223,193,-263,71,123,250,26,76,-42,-12
-304,-82,222,193,-263,70,121,248,24,75,-43,-13
-305,-83,222,194,-263,70,121,247,24,75,-43,-13
-306,-84,222,195,-264,69,121,247,23,75,-43,-13
-307,-84,223,196,-265,70,121,247,22,74,-44,-13
-307,-84,223,196,-265,70,121,247,22,74,-45,-14
-308,-84,224,196,-266,70,121,247,22,73,-46,-15
-309,-85,224,197,-266,70,122,246,23,73,-46,-15
-310,-85,225,198,-267,70,121,243,22,71,-47,-16
-311,-86,225,199,-268,70,122,243,23,71,-48,-17
-313,-87,226,200,-269,70,122,243,24,70,-48,-17
-314,-88,226,201,-270,69,123,243,22,69,-49,-18
-316,-88,228,202,-272,70,122,241,20,68,-50,-19
-317,-89,228,203,-272,70,122,241,19,67,-50,-19
-318,-90,228,204,-273,69,122,243,19,68,-49,-19
-318,-90,228,204,-273,69,122,244,19,68,-50,-19
-318,-90,228,204,-273,69,122,243,18,68,-50,-19
-318,-90,228,204,-273,69,122,242,18,69,-49,-19
-318,-89,229,204,-273,70,121,242,18,68,-50,-19
-318,-89,229,204,-273,70,121,243,18,69,-49,-19
-318,-88,230,203,-274,71,122,242,19,69,-49,-19
-318,-88,230,203,-274,71,121,241,18,69,-49,-19
-318,-88,230,203,-274,71,121,240,18,69,-49,-19
-318,-88,230,203,-274,71,121,240,18,68,-49,-19
-318,-88,230,203,-274,71,121,240,18,67,-50,-19
-318,-88,230,203,-274,71,121,240,18,67,-50,-19
-318,-88,230,203,-274,71,120,240,18,67,-50,-20
-318,-88,230,203,-274,71,121,239,18,67,-50,-20
-318,-88,230,203,-274,71,121,238,19,67,-50,-20
-318,-88,230,203,-274,71,121,237,19,68,-50,-20
-318,-88,230,203,-274,71,121,237,20,68,-49,-19
-318,-87,231,203,-274,72,120,238,20,69,-49,-19
-317,-87,230,202,-273,72,119,238,19,68,-50,-20
-317,-87,230,202,-273,72,120,239,19,69,-49,-19
-317,-87,230,202,-273,72,120,240,20,69,-49,-19
-317,-87,230,202,-273,72,120,241,21,69,-49,-19
-317,-87,230,202,-273,72,121,241,22,69,-49,-19
-317,-87,230,202,-273,72,122,241,22,69,-49,-19
-318,-87,231,203,-274,72,124,243,24,70,-49,-19
-318,-87,231,203,-274,72,125,245,24,69,-50,-20
-319,-88,231,204,-275,72,127,248,23,67,-51,-22
-319,-90,229,205,-274,70,130,253,24,67,-53,-23
-319,-91,228,205,-273,69,134,257,23,64,-56,-26
-320,-93,227,207,-273,67,139,264,25,62,-58,-28
-320,-94,226,207,-273,66,146,272,29,61,-61,-30
-319,-95,224,207,-271,65,152,281,33,59,-63,-33
"
		-319","
		-94","
		225","
		207","
		-272","
		66","
		159","
		289","
		39","
		58","
		-65","
		-34"
-318,-91,227,205,-272,68,166,300,50,59,-64,-33
-316,-86,230,201,-273,72,173,313,63,64,-61,-29
-312,-78,234,195,-273,78,179,328,79,72,-54,-24
-306,-68,238,187,-272,85,184,345,98,84,-44,-16
-297,-57,240,177,-268,92,190,364,122,103,-30,-4
-288,-44,244,166,-266,100,194,380,147,125,-11,10
-277,-28,249,153,-263,111,198,392,175,154,12,27
-266,-9,257,138,-261,124,199,397,204,190,39,49
-256,12,268,122,-262,140,197,388,227,229,72,74
-248,35,283,107,-265,159,188,359,238,272,107,103
-242,60,302,91,-272,181,168,306,234,315,142,131
-240,85,325,78,-282,205,139,235,219,361,180,162
-241,109,350,66,-295,230,99,150,195,411,220,193
-244,131,375,57,-309,253,48,54,165,459,257,222
-249,147,396,51,-322,272,-3,-40,137,508,291,247
-255,151,406,52,-330,279,-51,-118,112,545,312,258
-262,138,400,62,-331,269,-88,-172,93,567,318,256
-269,115,384,77,-326,250,-116,-206,74,571,308,241
-275,84,359,96,-317,222,-133,-220,56,555,283,215
-281,46,327,118,-304,187,-141,-215,35,516,243,180
-290,5,295,143,-292,150,-143,-197,5,455,191,137
-301,-31,270,166,-285,120,-141,-177,-35,375,132,96
-314,-56,258,185,-286,101,-136,-155,-75,289,76,60
-325,-75,250,200,-287,88,-126,-127,-109,204,23,28
-335,-91,244,213,-289,77,-110,-93,-133,127,-22,0
-342,-102,240,222,-291,69,-91,-56,-147,66,-57,-22
-347,-107,240,227,-293,67,-69,-19,-148,26,-79,-36
-347,-108,239,228,-293,66,-46,19,-133,9,-90,-45
-344,-106,238,225,-291,66,-23,59,-105,11,-90,-46
-339,-100,239,220,-289,70,-5,94,-78,22,-83,-43
-334,-94,240,214,-287,73,13,123,-53,38,-74,-38
-329,-88,241,209,-285,77,32,149,-29,53,-65,-32
-325,-82,243,204,-284,81,48,171,-9,63,-58,-27
-322,-78,244,200,-283,83,63,190,8,73,-51,-21
-319,-75,244,197,-281,85,76,206,21,80,-46,-18
-317,-74,243,196,-280,85,87,220,32,84,-43,-15
-316,-73,243,195,-279,85,97,231,40,86,-41,-15
-315,-74,241,195,-278,84,105,240,45,87,-41,-14
-315,-75,240,195,-277,83,112,248,50,89,-39,-13
-314,-76,238,195,-276,81,117,254,52,89,-40,-13
-314,-77,237,196,-275,80,121,258,53,88,-40,-14
-314,-78,236,196,-275,79,124,260,53,87,-41,-15
-314,-79,235,197,-274,78,127,262,54,88,-41,-15
-313,-79,234,196,-273,78,127,263,54,86,-43,-17
-313,-79,234,196,-273,78,129,264,55,86,-43,-17
-312,-79,233,196,-272,77,130,265,56,87,-43,-17
-312,-79,233,196,-272,77,131,266,57,87,-43,-17
-312,-79,233,196,-272,77,132,266,58,87,-43,-16
-312,-79,233,196,-272,77,133,267,59,88,-42,-16
-312,-79,233,196,-272,77,133,268,58,88,-42,-15
-312,-79,233,196,-272,77,134,270,59,88,-42,-15
-312,-79,233,196,-272,77,136,270,60,88,-42,-15
-312,-79,233,196,-272,77,136,271,61,88,-42,-15
-311,-79,232,195,-271,77,137,272,62,88,-42,-16
-311,-79,232,195,-271,77,138,273,63,88,-42,-16
-311,-79,232,195,-271,77,138,272,63,88,-42,-16
-311,-79,232,195,-271,77,138,272,62,88,-41,-15
-311,-78,233,195,-272,78,137,273,62,88,-41,-16
-311,-78,233,195,-272,78,137,275,63,89,-41,-15
-311,-78,233,195,-272,78,137,276,63,90,-40,-15
-311,-78,233,195,-272,78,138,279,63,91,-40,-14
-311,-78,233,195,-272,78,138,283,64,92,-39,-14
-311,-78,233,195,-272,78,138,285,66,92,-39,-15
-310,-78,232,194,-271,77,139,287,67,93,-39,-15
-310,-78,232,194,-271,77,139,289,68,93,-38,-14
-309,-78,231,194,-270,77,139,290,70,94,-38,-14
-308,-77,231,193,-269,77,137,291,71,94,-38,-15
-308,-77,231,193,-269,77,138,293,73,96,-37,-14
-308,-76,232,192,-270,78,138,295,75,97,-36,-13
-308,-75,233,192,-270,79,138,296,76,97,-37,-14
-308,-75,233,192,-270,79,139,296,77,97,-36,-13
-308,-75,233,192,-270,79,140,296,79,98,-36,-13
-308,-75,233,192,-270,79,141,296,81,98,-36,-13
-308,-74,234,191,-271,80,142,296,83,98,-36,-13
-307,-74,233,191,-270,80,142,296,84,98,-36,-13
-307,-74,233,191,-270,80,142,296,86,99,-36,-13
-307,-73,234,190,-270,81,140,296,87,99,-36,-13
-307,-73,234,190,-270,81,140,297,89,101,-35,-12
-306,-72,234,189,-270,81,140,298,89,102,-34,-11
-306,-72,234,189,-270,81,140,299,87,104,-33,-11
-306,-72,234,189,-270,81,141,299,87,105,-32,-11
-306,-72,234,189,-270,81,142,300,88,106,-31,-10
-306,-72,234,189,-270,81,142,301,89,107,-31,-10
-306,-72,234,189,-270,81,142,302,90,107,-31,-10
-306,-72,234,189,-270,81,143,302,93,108,-30,-10
-305,-72,233,189,-269,81,142,302,96,109,-30,-10
-304,-70,234,187,-269,82,141,303,98,109,-30,-10
-304,-70,234,187,-269,82,141,304,99,111,-29,-9
-304,-69,235,187,-269,83,142,305,100,113,-28,-8
-303,-68,235,186,-269,84,142,306,101,113,-28,-8
-303,-67,236,185,-269,85,143,308,103,115,-27,-7
-302,-66,236,184,-269,85,143,308,104,115,-27,-8
-302,-66,236,184,-269,85,144,309,106,115,-27,-7
-302,-66,236,184,-269,85,145,310,108,117,-26,-7
-301,-65,236,183,-268,86,145,310,111,117,-25,-6
-301,-65,236,183,-268,86,145,309,112,119,-24,-5
-301,-64,237,183,-269,87,144,308,113,119,-23,-5
-301,-64,237,183,-269,87,143,309,114,121,-21,-4
-300,-63,237,182,-268,87,143,311,115,124,-19,-2
-300,-63,237,182,-268,87,144,313,116,126,-18,-1
-299,-62,237,181,-268,88,143,315,117,127,-16,0
-297,-61,236,179,-266,88,143,318,119,129,-15,0
-296,-60,236,178,-266,88,144,320,121,130,-14,1
-295,-60,235,178,-265,88,145,323,124,132,-13,2
-294,-59,235,177,-264,88,145,324,126,134,-12,3
-293,-58,235,176,-264,89,146,327,130,137,-9,4
-292,-57,235,175,-263,89,146,328,132,139,-8,5
-292,-56,236,174,-264,90,146,332,135,143,-6,7
-291,-55,236,173,-263,91,146,334,138,146,-4,8
-290,-54,236,172,-263,91,146,336,141,148,-3,9
-289,-53,236,171,-262,92,148,339,145,152,0,11
-288,-52,236,170,-262,92,148,340,148,154,1,12
-287,-51,236,169,-261,93,149,343,151,156,3,13
-286,-49,237,168,-261,94,149,345,154,159,5,13
-284,-48,236,166,-260,94,149,347,158,162,7,15
-283,-46,237,165,-260,96,149,350,161,166,9,16
-281,-45,236,163,-258,96,148,353,165,171,12,18
-280,-43,237,162,-258,97,148,357,169,175,16,21
-279,-41,238,160,-258,99,148,359,173,181,19,23
-277,-39,238,158,-257,100,148,362,176,186,23,26
-275,-37,238,156,-256,101,148,365,178,191,26,28
-274,-35,239,155,-256,102,148,369,181,195,30,31
-272,-33,239,153,-255,103,148,371,183,199,32,32
-269,-31,238,150,-253,104,148,373,186,204,36,35
-267,-29,238,148,-252,105,147,374,188,208,38,36
-266,-27,239,147,-252,106,146,376,191,213,42,39
-264,-24,240,144,-252,108,146,378,194,218,46,42
-263,-22,241,143,-252,110,145,380,197,223,49,45
-262,-20,242,141,-252,111,145,381,200,229,53,48
-260,-17,243,139,-251,113,144,382,202,232,56,50
-259,-15,244,137,-251,115,144,384,205,235,59,52
-258,-13,245,136,-251,116,144,386,207,238,62,55
-257,-11,246,134,-251,118,144,386,210,241,64,57
-255,-10,245,133,-250,118,144,387,212,244,67,59
-254,-8,246,131,-250,119,144,387,213,246,69,61
-253,-6,247,130,-250,121,143,387,214,248,72,63
-252,-4,248,128,-250,122,142,386,215,251,74,65
-251,-2,249,127,-250,124,141,384,215,254,76,66
-251,0,251,126,-251,126,140,379,214,256,78,68
-250,1,251,125,-250,126,139,376,214,258,81,70
-250,3,253,124,-251,128,138,374,213,259,82,72
-250,4,254,123,-252,129,138,372,212,260,83,73
-250,4,254,123,-252,129,138,370,211,260,84,74
-250,5,255,123,-252,130,137,368,209,259,83,74
-250,5,255,123,-252,130,136,367,207,257,83,74
-251,5,256,123,-253,131,136,366,205,256,83,75
-252,5,257,124,-254,131,135,361,201,253,81,74
-253,5,258,124,-255,132,133,356,198,249,79,73
-255,4,259,126,-257,132,133,353,194,246,78,72
-257,3,260,127,-258,132,133,349,189,241,75,70
-259,1,260,129,-259,131,134,345,186,236,72,69
-261,-2,259,132,-260,129,134,340,180,230,67,66
-263,-5,258,134,-260,127,135,336,174,223,63,63
-266,-8,258,137,-262,125,136,331,168,216,57,60
-268,-11,257,140,-262,123,136,326,161,209,52,57
-271,-15,256,143,-263,121,136,321,154,201,47,53
-274,-19,255,147,-264,118,136,316,146,193,41,49
-276,-22,254,149,-265,116,135,311,139,186,36,46
-279,-26,253,153,-266,114,135,306,132,179,31,42
-282,-30,252,156,-267,111,136,303,126,173,27,39
-285,-34,251,160,-268,109,136,298,120,166,22,35
-287,-38,249,163,-268,106,136,295,113,160,17,31
-289,-42,247,166,-268,103,136,291,108,154,13,28
-291,-46,245,169,-268,100,136,287,103,148,9,24
-293,-49,244,171,-268,98,136,284,99,142,5,21
-294,-52,242,173,-268,95,134,280,94,136,0,18
-296,-55,241,176,-268,93,134,277,91,132,-3,16
-297,-57,240,177,-268,92,133,274,87,127,-6,13
-299,-59,240,179,-269,91,133,272,83,123,-9,11
-300,-61,239,181,-269,89,133,270,79,120,-12,9
-301,-63,238,182,-269,88,133,268,75,116,-15,6
-302,-65,237,184,-269,86,133,267,71,112,-17,4
-303,-68,235,186,-269,84,133,265,68,109,-20,2
-304,-70,234,187,-269,82,133,263,66,106,-22,1
-304,-72,232,188,-268,80,133,261,64,104,-24,-1
-305,-74,231,190,-268,79,133,260,61,102,-25,-2
-305,-75,230,190,-267,78,132,258,57,99,-27,-3
-306,-77,229,192,-267,76,132,257,56,98,-28,-4
-307,-78,229,193,-268,76,132,258,56,98,-28,-4
-308,-79,229,194,-268,75,133,258,55,97,-29,-4
-309,-80,229,195,-269,75,132,256,52,96,-30,-6
-310,-81,229,196,-269,74,133,255,53,95,-31,-6
-310,-81,229,196,-269,74,134,253,53,93,-32,-7
-310,-82,228,196,-269,73,133,251,53,92,-33,-7
-310,-82,228,196,-269,73,133,247,52,91,-34,-8
-309,-82,227,196,-268,73,132,246,51,90,-35,-8
-309,-82,227,196,-268,73,132,247,51,90,-35,-8
-309,-82,227,196,-268,73,131,247,51,89,-35,-8
-310,-83,227,197,-268,72,131,248,51,90,-34,-8
-310,-83,227,197,-268,72,131,249,51,89,-34,-8
-310,-83,227,197,-268,72,131,250,50,89,-35,-8
-311,-84,227,198,-269,72,132,250,49,89,-35,-9
-311,-84,227,198,-269,72,132,249,49,88,-36,-9
-310,-84,226,197,-268,71,132,248,48,87,-36,-10
-311,-84,227,198,-269,72,132,247,47,87,-36,-10
-311,-85,226,198,-268,71,132,247,47,88,-36,-9
-311,-85,226,198,-268,71,131,247,47,88,-35,-9
-311,-85,226,198,-268,71,130,246,46,89,-35,-9
-312,-85,227,199,-269,71,130,247,46,89,-35,-9
-312,-85,227,199,-269,71,130,248,45,90,-35,-9
-311,-85,226,198,-268,71,131,250,45,90,-34,-8
-311,-85,226,198,-268,71,132,251,45,91,-34,-8
-310,-84,226,197,-268,71,132,250,44,90,-35,-9
-310,-84,226,197,-268,71,133,249,44,90,-35,-9
-309,-84,225,197,-267,71,133,248,44,90,-35,-9
-309,-84,225,197,-267,71,133,248,44,89,-35,-9
-310,-84,226,197,-268,71,132,248,44,89,-35,-9
-310,-84,226,197,-268,71,132,248,45,90,-34,-9
-310,-84,226,197,-268,71,132,249,46,90,-34,-8
-310,-83,227,197,-268,72,131,251,46,91,-33,-8
-309,-83,226,196,-267,72,130,251,46,90,-34,-9
-309,-83,226,196,-267,72,130,252,47,90,-34,-8
-308,-83,225,196,-266,71,131,252,48,90,-34,-8
-308,-83,225,196,-266,71,131,253,49,90,-35,-8
-308,-82,226,195,-267,72,131,253,49,89,-35,-8
-308,-82,226,195,-267,72,131,254,50,89,-35,-8
-308,-82,226,195,-267,72,131,255,50,89,-35,-8
-308,-82,226,195,-267,72,131,256,50,89,-34,-8
-308,-81,227,195,-267,73,130,256,49,89,-34,-8
-309,-81,228,195,-268,74,131,258,49,91,-33,-7
-309,-81,228,195,-268,74,131,258,49,91,-33,-7
-308,-81,227,195,-267,73,131,257,49,90,-34,-8
-308,-81,227,195,-267,73,131,257,50,90,-34,-8
-308,-81,227,195,-267,73,131,257,49,90,-34,-9
-308,-82,226,195,-267,72,131,256,51,91,-33,-8
-308,-81,227,195,-267,73,130,254,51,90,-34,-9
-307,-81,226,194,-266,73,131,254,50,90,-33,-8
-307,-80,227,194,-267,74,130,253,48,91,-33,-8
-307,-80,227,194,-267,74,130,253,47,91,-32,-7
-307,-80,227,194,-267,74,130,254,48,92,-32,-7
-306,-80,226,193,-266,73,129,253,46,92,-32,-7
-306,-80,226,193,-266,73,129,253,46,92,-32,-7
-306,-80,226,193,-266,73,129,254,47,92,-32,-8
-307,-81,226,194,-266,73,129,256,49,92,-32,-7
-307,-81,226,194,-266,73,129,256,50,92,-32,-7
-307,-81,226,194,-266,73,129,255,50,91,-32,-8
-307,-80,227,194,-267,74,129,254,50,91,-33,-8
-308,-80,228,194,-268,74,128,254,50,90,-33,-8
-308,-80,228,194,-268,74,129,253,50,90,-33,-8
-308,-80,228,194,-268,74,129,253,50,90,-33,-7
-308,-80,228,194,-268,74,129,252,49,89,-33,-7
-308,-80,228,194,-268,74,129,252,49,89,-33,-8
-307,-80,227,194,-267,74,130,251,49,88,-34,-8
-307,-80,227,194,-267,74,130,251,48,87,-34,-8
-307,-81,226,194,-266,73,130,251,48,86,-34,-8
-307,-81,226,194,-266,73,130,251,47,85,-34,-9
-307,-80,227,194,-267,74,130,251,47,85,-34,-8
-307,-80,227,194,-267,74,130,252,46,85,-34,-8
-308,-80,228,194,-268,74,130,251,45,85,-34,-8
-308,-80,228,194,-268,74,130,249,43,84,-34,-8
-308,-80,228,194,-268,74,130,248,43,84,-35,-8
-308,-80,228,194,-268,74,130,248,43,84,-35,-9
-308,-80,228,194,-268,74,129,247,42,83,-36,-9
-308,-81,227,195,-267,73,129,246,41,81,-36,-10
-308,-81,227,195,-267,73,128,247,42,80,-37,-10
-308,-82,226,195,-267,72,128,249,43,80,-36,-10
-308,-82,226,195,-267,72,128,248,43,79,-37,-10
-308,-82,226,195,-267,72,128,246,42,78,-36,-10
-308,-81,227,195,-267,73,127,244,40,77,-38,-11
-308,-81,227,195,-267,73,127,243,39,77,-38,-11
-308,-81,227,195,-267,73,127,243,39,77,-38,-11
-308,-81,227,195,-267,73,127,242,39,77,-38,-11
-308,-81,227,195,-267,73,127,242,38,76,-38,-11
-308,-82,226,195,-267,72,128,244,39,77,-38,-11
-308,-82,226,195,-267,72,128,244,39,77,-38,-11
-308,-82,226,195,-267,72,127,243,38,76,-39,-11
-308,-82,226,195,-267,72,127,242,37,76,-39,-11
-308,-82,226,195,-267,72,126,242,36,75,-39,-11
-309,-82,227,196,-268,73,126,242,35,75,-39,-11
-309,-83,226,196,-267,72,126,243,34,75,-39,-11
-309,-83,226,196,-267,72,126,243,33,74,-40,-12
-309,-83,226,196,-267,72,126,244,33,74,-40,-12
-310,-84,226,197,-268,71,127,244,35,75,-40,-11
-310,-84,226,197,-268,71,127,242,35,74,-41,-12
-309,-84,225,197,-267,71,127,241,35,74,-42,-13
-309,-85,224,197,-266,70,127,239,36,74,-42,-13
-309,-84,225,197,-267,71,127,238,36,73,-42,-13
-309,-84,225,197,-267,71,127,238,36,73,-42,-12
-309,-84,225,197,-267,71,127,239,34,73,-42,-12
-309,-84,225,197,-267,71,127,240,32,73,-41,-12
-310,-84,226,197,-268,71,127,240,30,73,-41,-12
-310,-84,226,197,-268,71,127,240,30,73,-41,-12
-309,-85,224,197,-266,70,127,240,31,73,-41,-13
-309,-85,224,197,-266,70,126,241,32,73,-41,-13
-309,-85,224,197,-266,70,126,240,33,73,-42,-14
-309,-86,223,198,-266,69,126,240,34,73,-42,-14
-309,-86,223,198,-266,69,125,240,34,72,-42,-14
-309,-86,223,198,-266,69,125,240,33,72,-43,-14
-310,-86,224,198,-267,69,126,241,33,73,-42,-13
-310,-86,224,198,-267,69,126,240,32,73,-42,-14
-310,-86,224,198,-267,69,127,239,31,73,-42,-14
-310,-86,224,198,-267,69,127,238,31,73,-42,-14
-310,-87,223,199,-266,68,127,237,32,73,-43,-15
-310,-87,223,199,-266,68,127,237,33,72,-43,-15
-309,-87,222,198,-265,68,127,236,33,72,-43,-15
-309,-87,222,198,-265,68,127,236,34,72,-43,-15
-309,-86,223,198,-266,69,126,237,34,71,-44,-16
-309,-86,223,198,-266,69,125,238,34,71,-44,-15
-309,-86,223,198,-266,69,125,237,33,71,-43,-15
"
		-310","
		-86","
		224","
		198","
		-267","
		69","
		126","
		237","
		33","
		72","
		-42","
		-14"
-310,-86,224,198,-267,69,125,237,31,73,-42,-13
-310,-86,224,198,-267,69,125,237,30,73,-42,-14
-310,-86,224,198,-267,69,125,235,30,73,-42,-14
-310,-87,223,199,-266,68,125,233,29,73,-42,-14
-309,-87,222,198,-265,68,125,234,29,73,-43,-15
-309,-87,222,198,-265,68,125,234,29,73,-43,-15
-309,-87,222,198,-265,68,125,235,30,73,-43,-15
-309,-87,222,198,-265,68,125,234,30,73,-43,-15
-310,-87,223,199,-266,68,125,235,30,73,-43,-15
-310,-87,223,199,-266,68,125,236,30,73,-43,-15
-311,-86,225,199,-268,70,125,235,30,73,-43,-15
-311,-86,225,199,-268,70,125,234,30,73,-43,-15
-310,-87,223,199,-266,68,126,233,30,73,-43,-15
-310,-87,223,199,-266,68,126,232,30,72,-43,-15
-310,-87,223,199,-266,68,126,232,29,72,-44,-16
-310,-87,223,199,-266,68,125,231,29,72,-44,-16
-309,-87,222,198,-265,68,125,230,29,71,-44,-16
-309,-87,222,198,-265,68,125,231,29,71,-44,-16
-310,-87,223,199,-266,68,124,232,29,71,-44,-15
-310,-86,224,198,-267,69,125,233,29,70,-44,-15
-309,-86,223,198,-266,69,124,232,28,69,-45,-16
-309,-86,223,198,-266,69,124,232,29,69,-45,-16
-309,-86,223,198,-266,69,125,233,30,68,-45,-17
-309,-87,222,198,-265,68,126,234,32,69,-45,-16
-309,-87,222,198,-265,68,126,232,33,68,-45,-16
-310,-87,223,199,-266,68,125,232,33,68,-46,-17
-310,-88,222,199,-266,67,125,232,33,68,-46,-17
-310,-88,222,199,-266,67,125,232,32,67,-46,-17
-310,-88,222,199,-266,67,124,232,30,67,-46,-17
-310,-88,222,199,-266,67,124,232,28,67,-46,-17
-310,-88,222,199,-266,67,124,234,26,68,-46,-17
-310,-88,222,199,-266,67,124,234,26,68,-45,-17
-310,-88,222,199,-266,67,124,234,26,68,-45,-17
-310,-88,222,199,-266,67,124,235,27,68,-46,-17
-310,-89,221,200,-265,66,125,236,30,69,-45,-16
-310,-89,221,200,-265,66,125,236,32,69,-45,-16
-310,-89,221,200,-265,66,125,235,32,69,-45,-16
-310,-88,222,199,-266,67,124,232,31,68,-46,-17
-310,-88,222,199,-266,67,124,231,30,68,-46,-17
-310,-88,222,199,-266,67,124,229,30,68,-45,-17
-310,-88,222,199,-266,67,124,229,30,68,-46,-17
-310,-88,222,199,-266,67,124,230,30,68,-46,-17
-310,-88,222,199,-266,67,124,230,29,68,-46,-17
-310,-88,222,199,-266,67,124,231,29,68,-46,-17
-310,-88,222,199,-266,67,124,232,29,68,-46,-17
-310,-88,222,199,-266,67,123,232,29,68,-46,-17
-310,-88,222,199,-266,67,124,233,30,69,-46,-17
-310,-88,222,199,-266,67,124,232,30,69,-46,-17
-310,-88,222,199,-266,67,123,233,30,69,-46,-17
-310,-88,222,199,-266,67,124,232,30,69,-46,-17
-310,-88,222,199,-266,67,124,232,30,69,-46,-17
-310,-88,222,199,-266,67,125,231,29,69,-46,-17
-309,-88,221,199,-265,67,125,229,29,69,-46,-17
-309,-88,221,199,-265,67,125,228,29,69,-46,-17
-309,-88,221,199,-265,67,125,229,29,69,-46,-18
-309,-88,221,199,-265,67,124,229,30,68,-47,-18
-309,-88,221,199,-265,67,123,230,30,68,-47,-18
-310,-88,222,199,-266,67,123,231,30,68,-47,-18
-310,-88,222,199,-266,67,123,231,30,68,-47,-18
-310,-88,222,199,-266,67,123,231,30,68,-47,-17
-310,-88,222,199,-266,67,123,229,30,68,-47,-17
-310,-88,222,199,-266,67,124,229,29,68,-46,-17
-310,-88,222,199,-266,67,124,230,28,68,-46,-17
-309,-87,222,198,-265,68,124,230,28,69,-46,-17
-309,-87,222,198,-265,68,124,230,29,69,-46,-18
-309,-87,222,198,-265,68,124,231,30,69,-46,-18
-308,-87,221,198,-264,67,123,231,29,67,-47,-19
-308,-87,221,198,-264,67,123,230,30,67,-48,-19
-309,-87,222,198,-265,68,123,230,31,67,-47,-18
-309,-88,221,199,-265,67,123,230,30,67,-47,-18
-310,-88,222,199,-266,67,123,229,29,66,-47,-18
-310,-89,221,200,-265,66,124,229,30,67,-46,-17
-310,-89,221,200,-265,66,124,228,29,67,-46,-17
-310,-89,221,200,-265,66,125,228,27,67,-46,-17
-310,-89,221,200,-265,66,124,228,26,68,-46,-17
-310,-89,221,200,-265,66,124,229,28,69,-46,-17
-309,-88,221,199,-265,67,124,228,29,69,-46,-17
-309,-87,222,198,-265,68,124,229,29,69,-45,-17
-309,-87,222,198,-265,68,124,230,30,70,-45,-16
-308,-86,222,197,-265,68,124,229,31,69,-45,-16
-307,-85,222,196,-264,69,124,229,31,70,-45,-16
-306,-84,222,195,-264,69,126,231,31,71,-44,-15
-305,-82,223,194,-264,71,126,232,31,70,-44,-15
-304,-81,223,193,-263,71,127,233,31,71,-44,-15
-303,-80,223,192,-263,72,128,234,32,71,-44,-15
-302,-79,223,191,-262,72,129,236,33,72,-42,-14
-302,-78,224,190,-263,73,129,235,33,72,-43,-14
-302,-78,224,190,-263,73,128,236,34,72,-42,-14
-302,-78,224,190,-263,73,128,235,34,73,-42,-14
-302,-79,223,191,-262,72,129,235,35,73,-42,-13
-302,-80,222,191,-262,71,129,234,34,73,-42,-14
-303,-80,223,192,-263,72,129,234,33,72,-42,-14
-303,-81,222,192,-262,71,131,236,34,73,-42,-13
-303,-81,222,192,-262,71,133,238,35,73,-41,-13
-303,-80,223,192,-263,72,135,239,36,74,-41,-13
-302,-79,223,191,-262,72,137,242,39,75,-40,-12
-301,-77,224,189,-262,74,139,244,41,76,-38,-11
-300,-75,225,188,-262,75,141,246,43,78,-37,-10
-299,-73,226,186,-262,77,142,247,45,79,-37,-9
-299,-72,227,186,-263,78,143,248,46,80,-36,-8
-298,-71,227,185,-262,78,144,248,47,80,-35,-7
-297,-71,226,184,-261,78,143,245,47,79,-36,-8
-297,-71,226,184,-261,78,143,244,46,79,-37,-9
-297,-72,225,185,-261,77,143,244,46,80,-36,-8
-297,-73,224,185,-260,76,141,243,45,79,-36,-8
-297,-74,223,186,-260,75,138,240,43,78,-37,-9
-297,-76,221,187,-259,73,136,239,41,78,-37,-9
-297,-77,220,187,-258,72,132,239,39,76,-38,-10
-297,-80,217,189,-257,69,130,238,37,75,-38,-11
-297,-82,215,190,-256,67,128,236,35,74,-39,-11
-297,-85,212,191,-254,64,126,234,33,72,-40,-12
-298,-87,211,193,-254,62,125,232,31,71,-41,-13
-298,-88,210,193,-254,61,123,229,30,69,-43,-15
-298,-89,209,194,-253,60,122,228,30,69,-44,-15
-299,-90,209,195,-254,60,120,225,29,67,-45,-16
-299,-90,209,195,-254,60,120,223,28,67,-45,-16
-300,-90,210,195,-255,60,120,224,29,67,-45,-15
-300,-90,210,195,-255,60,120,224,28,67,-45,-15
-301,-90,211,196,-256,61,120,223,26,67,-45,-16
-302,-90,212,196,-257,61,120,223,23,66,-46,-16
-303,-90,213,197,-258,62,120,224,22,67,-46,-17
-305,-91,214,198,-259,62,121,226,22,67,-47,-17
-306,-93,213,200,-259,60,121,226,22,66,-47,-18
-307,-94,213,201,-260,60,120,225,21,65,-50,-20
-309,-95,214,202,-261,60,121,225,22,64,-50,-21
-311,-95,216,203,-263,61,122,225,23,64,-51,-21
-311,-96,215,204,-263,60,121,224,23,63,-51,-22
-312,-96,216,204,-264,60,122,224,23,63,-51,-21
-313,-96,217,205,-265,61,121,222,23,63,-50,-21
-313,-95,218,204,-265,62,121,222,23,63,-50,-20
-313,-94,219,204,-266,63,120,221,22,62,-50,-21
-312,-94,218,203,-265,62,120,221,22,63,-50,-21
-312,-94,218,203,-265,62,120,221,22,63,-50,-21
-312,-94,218,203,-265,62,120,222,22,62,-50,-21
-312,-94,218,203,-265,62,119,222,22,62,-51,-21
-311,-94,217,203,-264,62,119,221,22,63,-51,-21
-311,-95,216,203,-263,61,119,221,22,63,-51,-21
-312,-94,218,203,-265,62,119,220,22,63,-51,-21
-312,-94,218,203,-265,62,119,220,22,62,-51,-21
-312,-94,218,203,-265,62,119,220,22,62,-50,-21
-312,-94,218,203,-265,62,119,220,22,62,-50,-21
-312,-94,218,203,-265,62,119,221,23,62,-50,-21
-313,-94,219,204,-266,63,120,221,23,62,-50,-21
-312,-94,218,203,-265,62,120,221,23,62,-50,-21
-312,-94,218,203,-265,62,120,221,23,63,-50,-21
-312,-94,218,203,-265,62,120,220,23,64,-50,-21
-312,-93,219,203,-265,63,121,220,23,64,-50,-20
-312,-93,219,203,-265,63,121,219,24,64,-49,-20
-312,-93,219,203,-265,63,121,220,25,64,-49,-20
-312,-93,219,203,-265,63,122,222,26,64,-49,-20
-312,-93,219,203,-265,63,123,224,27,64,-49,-21
-312,-94,218,203,-265,62,125,228,28,63,-51,-22
-312,-95,217,204,-264,61,127,233,29,61,-52,-24
-313,-97,216,205,-264,60,131,239,31,60,-54,-26
-313,-98,215,206,-264,59,136,244,33,58,-56,-28
-314,-100,214,207,-264,57,142,249,34,56,-59,-30
-315,-101,214,208,-264,57,147,254,35,53,-62,-34
-315,-101,214,208,-264,57,153,261,39,52,-63,-35
-314,-100,214,207,-264,57,160,271,46,53,-63,-35
-313,-96,217,205,-265,61,166,282,54,56,-62,-34
-310,-91,219,201,-264,64,173,296,67,61,-58,-30
-304,-82,222,193,-263,70,178,313,84,71,-50,-24
-296,-73,223,185,-259,75,184,335,106,87,-38,-14
-286,-61,225,174,-255,82,188,353,129,105,-23,-2
-276,-47,229,162,-252,91,192,368,156,130,-3,13
-265,-30,235,148,-250,103,195,377,184,161,22,33
-254,-10,244,132,-249,117,195,379,212,197,52,57
-245,14,259,116,-252,137,190,365,232,237,85,83
-238,39,277,100,-257,158,179,329,239,278,121,112
-233,65,298,84,-265,182,158,271,232,323,158,143
-232,91,323,71,-277,207,126,193,215,369,197,175
-234,116,350,59,-292,233,84,101,190,418,237,207
-238,138,376,50,-307,257,34,1,160,466,274,236
-244,150,394,47,-319,272,-15,-92,133,510,304,257
-251,147,398,52,-324,273,-57,-167,109,541,319,264
-259,130,389,65,-324,260,-87,-216,90,554,318,257
-266,104,370,81,-318,237,-108,-243,72,548,302,238
-273,70,343,102,-308,207,-120,-249,52,523,270,207
-280,30,310,125,-295,170,-125,-236,29,475,224,167
-289,-10,279,150,-284,135,-126,-216,-4,407,168,123
-299,-42,257,171,-278,108,-125,-193,-43,327,111,83
-310,-66,244,188,-277,89,-121,-166,-79,246,57,48
-321,-84,237,203,-279,77,-112,-133,-107,168,8,17
-328,-99,229,214,-278,65,-99,-96,-127,97,-34,-10
-334,-108,226,221,-280,59,-81,-59,-135,46,-64,-28
-337,-112,225,225,-281,57,-59,-21,-130,15,-82,-41
-337,-112,225,225,-281,57,-37,18,-111,4,-89,-46
-333,-109,224,221,-278,58,-16,55,-85,9,-86,-46
-329,-103,226,216,-277,62,3,86,-60,23,-77,-41
-324,-98,226,211,-275,64,20,113,-38,39,-68,-36
-321,-92,229,207,-275,69,39,138,-17,52,-60,-30
-317,-87,230,202,-273,72,54,160,2,62,-53,-25
-314,-84,230,199,-272,73,68,179,18,70,-47,-21
-312,-81,231,197,-271,75,81,195,31,76,-43,-17
-311,-81,230,196,-270,75,92,209,41,79,-40,-16
-310,-81,229,196,-269,74,101,221,48,82,-39,-14
-309,-81,228,195,-268,74,108,229,52,83,-37,-14
-308,-82,226,195,-267,72,114,234,54,83,-37,-13
-307,-83,224,195,-265,71,118,238,55,83,-37,-14
-307,-83,224,195,-265,71,121,242,56,83,-38,-15
-306,-84,222,195,-264,69,124,244,58,82,-39,-16
-306,-85,221,196,-263,68,125,245,59,81,-40,-17
-306,-86,220,196,-263,67,127,246,59,79,-42,-18
-306,-87,219,197,-262,66,129,248,60,79,-42,-18
-306,-87,219,197,-262,66,129,250,61,78,-42,-19
-306,-87,219,197,-262,66,129,251,61,78,-42,-19
-306,-87,219,197,-262,66,129,251,61,78,-42,-18
-307,-86,221,197,-264,68,130,251,60,79,-42,-18
-307,-86,221,197,-264,68,130,252,59,80,-41,-17
-307,-86,221,197,-264,68,131,252,59,82,-41,-17
-307,-86,221,197,-264,68,133,251,60,82,-41,-17
-306,-86,220,196,-263,67,132,251,60,82,-42,-18
-306,-87,219,197,-262,66,134,254,62,83,-40,-17
-305,-87,218,196,-261,66,133,255,62,82,-41,-18
-305,-87,218,196,-261,66,133,257,65,82,-40,-17
-304,-87,217,196,-260,65,133,260,66,83,-39,-16
-303,-87,216,195,-259,65,133,263,67,84,-38,-15
-303,-86,217,195,-260,66,133,264,67,85,-38,-15
-303,-86,217,195,-260,66,133,265,67,86,-37,-15
-302,-85,217,194,-259,66,135,268,68,86,-37,-15
-302,-85,217,194,-259,66,136,270,70,86,-37,-15
-302,-85,217,194,-259,66,136,272,72,86,-37,-15
-302,-85,217,194,-259,66,137,274,74,85,-38,-16
-302,-86,216,194,-259,65,137,275,74,85,-38,-16
-302,-86,216,194,-259,65,137,276,75,85,-37,-16
-302,-86,216,194,-259,65,136,276,77,86,-36,-15
-302,-85,217,194,-259,66,136,276,78,87,-35,-14
-302,-85,217,194,-259,66,135,277,78,88,-34,-13
-302,-85,217,194,-259,66,135,279,79,89,-33,-13
-302,-85,217,194,-259,66,136,280,81,90,-32,-12
-302,-85,217,194,-259,66,137,282,83,90,-33,-13
-302,-85,217,194,-259,66,137,284,84,89,-33,-13
-301,-85,216,193,-258,66,137,284,84,88,-34,-14
-300,-85,215,193,-257,65,138,284,87,88,-34,-14
-300,-84,216,192,-258,66,138,284,89,89,-33,-14
-299,-83,216,191,-257,67,137,283,90,89,-33,-13
-299,-82,217,191,-258,68,137,283,91,91,-31,-12
-299,-82,217,191,-258,68,137,283,91,93,-30,-11
-298,-81,217,190,-257,68,136,282,91,94,-30,-11
-298,-81,217,190,-257,68,137,283,93,96,-29,-10
-298,-81,217,190,-257,68,138,285,95,97,-29,-10
-298,-81,217,190,-257,68,138,285,97,98,-29,-10
-297,-81,216,189,-256,68,139,286,100,99,-28,-10
-297,-80,217,189,-257,69,138,287,102,98,-29,-11
-297,-80,217,189,-257,69,138,288,103,99,-28,-10
-296,-80,216,188,-256,68,137,288,103,100,-27,-10
-296,-79,217,188,-256,69,137,288,103,102,-26,-8
-296,-79,217,188,-256,69,137,290,104,104,-24,-7
-296,-78,218,187,-257,70,136,290,104,105,-23,-7
-296,-78,218,187,-257,70,136,291,105,106,-22,-6
-296,-77,219,187,-257,71,137,292,106,108,-21,-6
-295,-77,218,186,-256,71,139,293,109,109,-21,-5
-294,-76,218,185,-256,71,139,292,110,109,-21,-6
-293,-76,217,185,-255,71,139,292,112,111,-20,-5
-292,-75,217,184,-254,71,139,291,113,112,-20,-5
-291,-74,217,183,-254,72,138,292,115,113,-19,-4
-291,-74,217,183,-254,72,138,293,117,115,-17,-3
-290,-73,217,182,-253,72,139,293,119,118,-16,-1
-290,-72,218,181,-254,73,138,293,119,119,-15,0
-289,-71,218,180,-253,74,139,296,120,121,-13,1
-288,-71,217,180,-252,73,140,296,120,122,-12,0
-288,-70,218,179,-253,74,141,296,123,124,-11,1
-287,-69,218,178,-252,75,141,293,124,125,-10,1
-285,-69,216,177,-250,74,141,294,126,128,-8,2
-285,-68,217,177,-251,75,140,295,128,130,-7,3
-284,-68,216,176,-250,74,139,298,131,133,-5,5
-283,-67,216,175,-249,75,138,300,133,136,-3,6
-282,-66,216,174,-249,75,138,305,135,140,0,9
-281,-64,217,173,-249,77,137,310,137,143,2,10
-280,-63,217,172,-248,77,138,315,140,145,4,11
-279,-62,217,171,-248,78,138,318,144,148,5,12
-277,-61,216,169,-246,78,139,321,147,150,7,12
-275,-59,216,167,-245,79,139,325,151,153,9,13
-274,-58,216,166,-245,79,139,329,155,156,11,15
-272,-57,215,165,-243,79,139,332,160,159,13,16
-271,-55,216,163,-243,81,138,336,163,162,16,18
-270,-53,217,162,-243,82,138,340,166,166,20,21
-268,-51,217,160,-242,83,138,344,169,171,23,24
-267,-49,218,158,-242,85,138,347,172,176,27,27
-265,-47,218,156,-241,86,138,351,174,181,30,29
-263,-45,218,154,-240,87,138,354,177,185,33,31
-261,-43,218,152,-239,88,138,357,182,189,36,33
-259,-42,217,151,-238,88,139,360,186,193,38,35
-257,-40,217,149,-237,89,139,362,190,197,42,38
-255,-38,217,147,-236,90,138,363,194,201,45,40
-254,-35,219,145,-236,92,137,364,198,206,49,43
-252,-32,220,142,-236,94,135,365,200,209,52,46
-251,-30,221,141,-236,96,134,367,202,214,56,49
-250,-27,223,139,-236,98,133,369,202,218,60,52
-248,-25,223,137,-235,99,133,372,203,223,64,54
-247,-24,223,136,-235,100,133,374,204,226,66,56
-246,-22,224,134,-235,101,133,375,206,229,68,57
-245,-21,224,133,-234,102,133,375,207,232,70,59
-244,-20,224,132,-234,102,133,375,211,235,73,61
-243,-18,225,131,-234,104,132,375,214,238,75,64
-242,-16,226,129,-234,105,132,374,217,240,77,66
-241,-14,227,128,-234,107,130,372,218,241,79,68
-241,-13,228,127,-234,108,129,370,217,242,81,70
-241,-11,230,126,-235,110,129,369,217,245,84,73
"
		-241","
		-10","
		231","
		126","
		-236","
		111","
		128","
		366","
		215","
		245","
		85","
		73"
-241,-10,231,126,-236,111,129,364,213,245,86,75
-241,-9,232,125,-236,112,129,361,212,245,86,75
-241,-9,232,125,-236,112,129,357,210,245,86,75
-241,-9,232,125,-236,112,128,353,207,244,86,75
-242,-9,233,126,-237,112,128,349,204,242,86,75
-242,-9,233,126,-237,112,127,344,200,240,84,74
-244,-9,235,127,-239,113,126,339,196,238,83,74
-245,-10,235,128,-240,113,126,335,192,235,82,74
-247,-11,236,129,-241,113,126,330,188,232,79,72
-250,-13,237,132,-243,112,126,324,182,226,76,70
-252,-15,237,134,-244,111,128,320,178,221,72,68
-254,-18,236,136,-245,109,127,313,173,214,67,64
-257,-21,236,139,-246,108,128,307,167,207,62,61
-260,-24,236,142,-248,106,128,301,161,200,57,57
-262,-28,234,145,-248,103,128,295,154,192,52,54
-265,-31,234,148,-249,102,128,290,147,185,47,51
-267,-35,232,151,-249,99,127,285,140,178,42,48
-270,-39,231,155,-250,96,128,280,134,173,39,45
-273,-42,231,158,-252,95,129,277,128,166,34,42
-275,-46,229,161,-252,92,130,274,122,159,29,38
-277,-49,228,163,-252,90,130,269,115,151,22,33
-279,-53,226,166,-252,87,131,264,110,145,17,30
-281,-56,225,169,-253,85,132,259,104,139,12,26
-283,-60,223,172,-253,82,132,257,99,134,8,24
-284,-62,222,173,-253,80,131,253,94,128,4,20
-285,-65,220,175,-252,78,130,249,88,124,1,18
-287,-68,219,178,-253,76,130,248,85,121,-1,17
-289,-70,219,180,-254,75,128,247,80,118,-3,15
-290,-73,217,182,-253,72,129,246,76,115,-5,14
-291,-75,216,183,-253,71,129,244,73,111,-7,11
-292,-77,215,185,-253,69,129,243,70,108,-10,9
-293,-80,213,187,-253,67,130,242,68,104,-13,7
-294,-82,212,188,-253,65,130,241,66,100,-16,5
-295,-83,212,189,-253,65,131,239,64,97,-18,3
-296,-85,211,191,-253,63,130,239,62,95,-20,2
-296,-85,211,191,-253,63,129,238,59,93,-22,0
-297,-86,211,192,-254,63,128,237,57,91,-23,-1
-297,-87,210,192,-253,62,128,237,56,91,-23,-1
-298,-87,211,193,-254,62,127,237,54,89,-24,-2
-298,-88,210,193,-254,61,126,237,53,88,-25,-3
-298,-89,209,194,-253,60,127,239,54,88,-25,-2
-299,-90,209,195,-254,60,128,239,54,86,-27,-4
-299,-91,208,195,-253,59,129,239,55,85,-27,-4
-300,-92,208,196,-254,58,129,238,54,83,-28,-5
-300,-92,208,196,-254,58,128,238,54,81,-29,-6
-300,-93,207,197,-253,57,129,239,55,81,-29,-5
-300,-93,207,197,-253,57,129,239,55,81,-29,-6
-300,-93,207,197,-253,57,129,238,54,81,-29,-6
-301,-93,208,197,-254,58,129,238,52,81,-29,-6
-301,-94,207,198,-254,57,129,238,51,81,-29,-6
-300,-94,206,197,-253,56,129,237,50,81,-29,-6
-300,-95,205,198,-252,55,129,236,49,81,-30,-7
-300,-95,205,198,-252,55,129,236,49,81,-31,-7
-300,-95,205,198,-252,55,129,237,49,81,-31,-7
-300,-95,205,198,-252,55,129,237,48,82,-31,-6
-300,-95,205,198,-252,55,128,237,48,82,-31,-6
-300,-95,205,198,-252,55,127,238,48,82,-30,-6
-300,-95,205,198,-252,55,128,238,49,83,-29,-5
-300,-94,206,197,-253,56,128,237,49,83,-28,-5
-300,-94,206,197,-253,56,128,237,49,83,-28,-5
-300,-94,206,197,-253,56,128,236,49,83,-28,-6
-300,-95,205,198,-252,55,129,234,50,83,-28,-6
-300,-95,205,198,-252,55,129,234,50,83,-28,-6
-300,-95,205,198,-252,55,129,234,49,83,-28,-6
-300,-95,205,198,-252,55,129,233,49,83,-28,-6
-300,-95,205,198,-252,55,129,232,49,83,-28,-5
-300,-94,206,197,-253,56,128,232,49,84,-28,-4
-299,-94,205,197,-252,56,128,233,49,84,-26,-3
-299,-93,206,196,-252,57,127,233,47,84,-26,-4
-298,-93,205,196,-251,56,127,233,47,84,-26,-3
-298,-93,205,196,-251,56,127,233,46,84,-26,-3
-298,-93,205,196,-251,56,128,235,47,84,-26,-4
-298,-94,204,196,-251,55,128,235,47,83,-26,-4
-298,-94,204,196,-251,55,128,234,47,83,-27,-4
-298,-94,204,196,-251,55,127,232,47,83,-27,-4
-298,-93,205,196,-251,56,126,231,47,84,-27,-4
-298,-93,205,196,-251,56,126,231,47,84,-26,-4
-298,-93,205,196,-251,56,126,231,46,85,-26,-3
-298,-92,206,195,-252,57,126,231,46,86,-25,-3
-297,-92,205,195,-251,57,126,231,45,85,-26,-4
-297,-92,205,195,-251,57,127,233,45,86,-25,-4
-297,-93,204,195,-250,56,129,235,47,87,-25,-4
-297,-93,204,195,-250,56,129,235,48,86,-25,-4
-297,-93,204,195,-250,56,129,235,48,85,-25,-4
-297,-93,204,195,-250,56,129,234,49,85,-25,-4
-297,-93,204,195,-250,56,129,234,49,84,-25,-4
-297,-93,204,195,-250,56,128,234,48,84,-26,-4
-298,-93,205,196,-251,56,127,234,48,84,-26,-4
-298,-93,205,196,-251,56,127,235,48,84,-25,-4
-297,-93,204,195,-250,56,128,236,48,84,-25,-4
-297,-94,203,196,-250,55,128,237,48,84,-26,-4
-297,-94,203,196,-250,55,128,237,49,83,-26,-4
-297,-93,204,195,-250,56,129,237,49,82,-26,-4
-297,-93,204,195,-250,56,129,236,48,81,-26,-3
-297,-93,204,195,-250,56,129,234,46,81,-26,-3
-297,-92,205,195,-251,57,128,231,44,80,-27,-3
-297,-92,205,195,-251,57,127,231,43,81,-26,-2
-296,-92,204,194,-250,56,126,232,43,81,-25,-1
-296,-92,204,194,-250,56,126,233,43,82,-25,-1
-297,-92,205,195,-251,57,126,234,43,82,-25,-1
-297,-92,205,195,-251,57,126,236,44,82,-25,-2
-297,-93,204,195,-250,56,127,238,46,82,-25,-1
-297,-93,204,195,-250,56,127,237,46,81,-25,-2
-297,-94,203,196,-250,55,128,236,45,80,-26,-2
-297,-94,203,196,-250,55,127,235,45,79,-27,-3
-296,-94,202,195,-249,54,127,234,45,78,-27,-3
-297,-94,203,196,-250,55,126,233,44,77,-27,-3
-297,-94,203,196,-250,55,126,233,43,76,-28,-3
-297,-94,203,196,-250,55,127,232,43,75,-28,-3
-298,-94,204,196,-251,55,127,232,42,74,-28,-4
-298,-94,204,196,-251,55,127,231,41,73,-29,-4
-297,-94,203,196,-250,55,128,231,40,73,-29,-4
-297,-94,203,196,-250,55,128,231,40,73,-29,-4
-297,-94,203,196,-250,55,127,230,39,74,-29,-5
-297,-94,203,196,-250,55,127,230,38,74,-30,-5
-297,-94,203,196,-250,55,126,230,38,74,-29,-5
-296,-94,202,195,-249,54,126,230,38,75,-29,-5
-296,-94,202,195,-249,54,126,230,37,75,-29,-4
-297,-94,203,196,-250,55,126,229,37,75,-29,-4
-297,-94,203,196,-250,55,125,227,36,74,-29,-4
-297,-95,202,196,-249,54,125,226,36,73,-30,-4
-297,-95,202,196,-249,54,125,225,35,72,-30,-5
-297,-96,201,197,-249,53,126,225,35,72,-30,-4
-297,-97,200,197,-248,52,126,224,35,71,-31,-5
-297,-97,200,197,-248,52,125,223,35,71,-31,-6
-297,-97,200,197,-248,52,124,223,34,70,-32,-6
-298,-97,201,198,-249,52,124,223,33,69,-32,-6
-298,-97,201,198,-249,52,124,223,33,69,-32,-6
-298,-97,201,198,-249,52,124,222,33,69,-32,-7
-298,-96,202,197,-250,53,124,223,33,69,-32,-7
-298,-96,202,197,-250,53,125,223,33,69,-32,-8
-298,-96,202,197,-250,53,125,224,33,68,-33,-8
-298,-97,201,198,-249,52,125,224,33,68,-33,-9
-298,-97,201,198,-249,52,125,223,32,67,-33,-9
-298,-97,201,198,-249,52,125,222,31,67,-33,-9
-299,-98,201,199,-250,52,125,221,31,68,-33,-8
-299,-98,201,199,-250,52,124,221,29,68,-32,-8
-299,-98,201,199,-250,52,124,220,28,69,-32,-7
-300,-98,202,199,-251,52,124,219,27,69,-32,-7
-300,-99,201,200,-250,51,125,218,27,70,-31,-5
-299,-99,200,199,-249,51,125,218,26,69,-32,-6
-299,-100,199,200,-249,50,126,219,27,69,-32,-6
-299,-101,198,200,-248,49,125,218,28,69,-32,-7
-298,-101,197,200,-247,48,125,218,28,69,-33,-7
-298,-101,197,200,-247,48,124,219,29,68,-33,-8
-299,-101,198,200,-248,49,123,220,29,68,-34,-8
-299,-101,198,200,-248,49,123,219,29,68,-34,-8
-299,-101,198,200,-248,49,123,219,28,68,-33,-8
-299,-100,199,200,-249,50,123,219,26,68,-33,-8
-299,-101,198,200,-248,49,123,219,25,67,-33,-8
-299,-101,198,200,-248,49,124,219,25,68,-33,-8
-299,-101,198,200,-248,49,124,219,25,68,-33,-7
-298,-101,197,200,-247,48,124,219,25,68,-33,-7
-298,-101,197,200,-247,48,124,219,26,67,-33,-7
-298,-101,197,200,-247,48,124,219,28,67,-33,-7
-298,-100,198,199,-248,49,123,217,27,66,-34,-8
-299,-100,199,200,-249,50,124,218,27,67,-33,-7
-299,-100,199,200,-249,50,123,218,27,68,-33,-7
-299,-100,199,200,-249,50,123,218,28,68,-33,-7
-299,-100,199,200,-249,50,124,218,28,68,-33,-7
-299,-101,198,200,-248,49,124,218,27,68,-34,-8
-299,-101,198,200,-248,49,124,217,26,67,-34,-8
-299,-101,198,200,-248,49,124,216,26,67,-34,-8
-298,-102,196,200,-247,47,124,216,25,66,-34,-9
-299,-102,197,201,-248,48,123,214,24,65,-34,-9
-299,-102,197,201,-248,48,123,214,23,66,-34,-9
-299,-101,198,200,-248,49,122,214,23,66,-33,-9
-299,-101,198,200,-248,49,122,214,23,66,-33,-8
-299,-101,198,200,-248,49,122,215,23,67,-33,-8
-299,-101,198,200,-248,49,123,216,24,67,-32,-7
-299,-101,198,200,-248,49,123,217,24,67,-32,-7
-299,-102,197,201,-248,48,124,218,24,66,-33,-7
-299,-102,197,201,-248,48,124,218,24,66,-33,-7
-298,-102,196,200,-247,47,124,217,24,66,-33,-7
-298,-102,196,200,-247,47,124,216,24,66,-33,-7
-298,-102,196,200,-247,47,123,214,23,66,-33,-8
-298,-101,197,200,-247,48,123,214,23,66,-33,-8
-298,-101,197,200,-247,48,123,214,23,66,-32,-7
-298,-101,197,200,-247,48,123,213,23,66,-32,-7
-298,-102,196,200,-247,47,122,214,23,66,-32,-8
-298,-102,196,200,-247,47,123,215,22,65,-33,-8
-298,-102,196,200,-247,47,123,216,23,65,-34,-8
-298,-102,196,200,-247,47,123,216,23,65,-34,-9
-298,-102,196,200,-247,47,123,215,24,65,-34,-9
-298,-102,196,200,-247,47,123,215,24,64,-35,-10
-298,-102,196,200,-247,47,123,216,24,64,-35,-10
-298,-102,196,200,-247,47,122,216,25,64,-35,-9
-299,-102,197,201,-248,48,122,216,25,64,-35,-9
-299,-102,197,201,-248,48,122,217,24,64,-34,-9
-299,-102,197,201,-248,48,122,217,24,64,-35,-9
-299,-103,196,201,-247,47,124,219,25,65,-34,-8
-298,-103,195,201,-246,46,123,218,23,64,-35,-10
-298,-103,195,201,-246,46,123,218,23,65,-35,-10
-298,-104,194,201,-246,45,125,219,25,65,-35,-9
-298,-103,195,201,-246,46,124,217,24,64,-36,-10
-298,-103,195,201,-246,46,123,216,24,64,-36,-10
-298,-103,195,201,-246,46,123,216,25,64,-35,-10
-298,-102,196,200,-247,47,123,216,26,64,-35,-9
-298,-102,196,200,-247,47,124,215,26,64,-34,-9
-298,-102,196,200,-247,47,124,214,25,64,-34,-9
-298,-102,196,200,-247,47,123,213,24,64,-34,-9
-298,-103,195,201,-246,46,123,212,23,64,-33,-9
-298,-103,195,201,-246,46,123,212,23,64,-33,-9
-298,-104,194,201,-246,45,123,213,24,65,-33,-9
-297,-104,193,201,-245,45,121,212,23,64,-34,-10
-297,-104,193,201,-245,45,120,213,23,64,-33,-10
-298,-103,195,201,-246,46,120,214,23,64,-33,-9
-298,-103,195,201,-246,46,120,215,23,65,-33,-9
-298,-103,195,201,-246,46,120,214,23,65,-33,-10
-299,-103,196,201,-247,47,122,214,24,66,-33,-9
-299,-103,196,201,-247,47,122,215,25,66,-33,-9
-299,-103,196,201,-247,47,123,215,25,65,-33,-9
-298,-104,194,201,-246,45,123,215,25,65,-34,-10
-298,-104,194,201,-246,45,123,214,25,65,-34,-10
-298,-105,193,202,-245,44,123,214,25,64,-34,-10
-298,-105,193,202,-245,44,123,213,25,64,-34,-10
-298,-104,194,201,-246,45,123,213,25,65,-33,-9
-298,-104,194,201,-246,45,123,212,24,65,-33,-9
-299,-104,195,202,-247,46,123,211,24,65,-33,-9
-299,-104,195,202,-247,46,123,210,24,65,-33,-9
-299,-104,195,202,-247,46,123,210,25,65,-33,-8
-299,-104,195,202,-247,46,123,211,24,65,-34,-9
-299,-105,194,202,-246,45,123,210,23,64,-34,-9
-298,-105,193,202,-245,44,122,211,22,64,-34,-9
-298,-105,193,202,-245,44,122,211,22,64,-34,-9
-298,-105,193,202,-245,44,122,212,21,64,-34,-9
-298,-105,193,202,-245,44,122,212,21,64,-34,-9
-299,-105,194,202,-246,45,122,212,21,64,-34,-9
-299,-105,194,202,-246,45,122,213,22,65,-34,-9
-299,-105,194,202,-246,45,123,212,22,65,-34,-9
-299,-105,194,202,-246,45,123,211,23,65,-34,-9
-298,-105,193,202,-245,44,123,211,23,64,-34,-10
-298,-105,193,202,-245,44,123,211,24,64,-34,-10
-298,-105,193,202,-245,44,123,211,25,64,-35,-10
-298,-105,193,202,-245,44,123,210,25,64,-35,-10
-297,-105,192,201,-244,44,123,211,25,64,-34,-10
-297,-104,193,201,-245,45,122,212,24,63,-35,-10
-297,-104,193,201,-245,45,122,213,22,64,-35,-10
-297,-104,193,201,-245,45,122,212,22,65,-34,-10
-297,-104,193,201,-245,45,123,212,22,65,-34,-10
-297,-104,193,201,-245,45,122,212,22,65,-33,-9
-297,-104,193,201,-245,45,122,212,23,65,-33,-9
-297,-104,193,201,-245,45,122,212,23,64,-33,-9
-297,-104,193,201,-245,45,122,212,24,64,-33,-8
-296,-103,193,200,-244,45,122,213,26,65,-32,-7
-295,-102,193,199,-244,46,122,214,26,65,-32,-7
-295,-101,194,198,-244,47,123,216,26,66,-31,-5
-294,-99,195,197,-244,48,124,217,26,66,-30,-5
-293,-98,195,196,-244,49,125,218,26,68,-29,-4
-292,-97,195,195,-243,49,125,218,26,68,-29,-4
-291,-97,194,194,-242,49,126,219,27,69,-29,-4
-291,-98,193,195,-242,48,126,219,26,69,-29,-5
-290,-98,192,194,-241,47,126,219,27,69,-29,-5
-290,-98,192,194,-241,47,126,219,28,69,-29,-5
-291,-99,192,195,-241,47,127,220,29,70,-29,-5
-291,-99,192,195,-241,47,127,219,28,69,-30,-6
-292,-99,193,196,-242,47,128,220,29,69,-30,-6
-293,-99,194,196,-243,48,130,221,30,70,-29,-5
-293,-98,195,196,-244,49,132,223,32,72,-28,-5
-292,-97,195,195,-243,49,134,225,33,72,-27,-4
-292,-96,196,194,-244,50,137,227,36,74,-25,-2
-291,-94,197,193,-244,52,139,228,38,75,-24,-2
-289,-92,197,191,-243,53,141,228,40,75,-24,-1
-288,-91,197,190,-242,53,141,229,41,75,-23,-1
-288,-90,198,189,-243,54,142,230,40,76,-23,0
-287,-90,197,189,-242,54,141,228,39,75,-23,-1
-286,-90,196,188,-241,53,140,228,38,76,-23,0
-285,-89,196,187,-240,54,139,227,37,76,-23,0
-285,-90,195,188,-240,53,138,227,37,77,-22,1
-285,-91,194,188,-239,52,136,225,36,76,-23,0
-285,-93,192,189,-238,50,134,223,36,76,-22,0
-284,-95,189,190,-236,47,131,222,35,75,-24,-1
-284,-97,187,191,-235,45,130,221,34,74,-25,-2
-284,-100,184,192,-234,42,127,219,32,72,-26,-3
-284,-102,182,193,-233,40,124,217,30,70,-27,-4
-285,-103,182,194,-233,40,124,217,29,70,-28,-4
-286,-103,183,195,-234,40,122,215,27,68,-29,-5
-286,-104,182,195,-234,39,122,213,27,68,-29,-4
-287,-105,182,196,-234,39,121,210,25,67,-29,-5
-288,-105,183,197,-235,39,122,209,24,67,-29,-5
-289,-106,183,198,-236,39,121,209,22,66,-30,-6
-289,-107,182,198,-235,38,121,208,20,66,-30,-6
-290,-108,182,199,-236,37,120,207,19,64,-32,-8
-292,-110,182,201,-237,36,122,209,19,65,-32,-8
-293,-110,183,202,-238,37,121,210,19,63,-33,-9
-295,-111,184,203,-239,37,121,210,19,63,-34,-10
-296,-112,184,204,-240,36,122,210,19,63,-34,-10
-297,-112,185,205,-241,37,122,210,18,62,-34,-10
-298,-112,186,205,-242,37,122,211,18,62,-35,-11
-298,-112,186,205,-242,37,122,211,19,62,-35,-11
-299,-112,187,206,-243,38,123,211,19,63,-34,-10
-299,-112,187,206,-243,38,123,209,19,62,-35,-10
-300,-112,188,206,-244,38,124,208,20,62,-35,-10
-299,-112,187,206,-243,38,123,206,21,62,-34,-10
-299,-112,187,206,-243,38,123,204,20,62,-34,-10
-299,-112,187,206,-243,38,122,203,19,62,-34,-10
-299,-111,188,205,-243,39,120,203,18,61,-35,-11
-298,-111,187,205,-242,38,119,204,18,62,-34,-10
-298,-111,187,205,-242,38,119,205,17,61,-35,-11
"
		-298","
		-111","
		187","
		205","
		-242","
		38","
		119","
		207","
		17","
		61","
		-35","
		-11"
-298,-111,187,205,-242,38,119,208,18,62,-35,-11
-299,-111,188,205,-243,39,120,208,19,62,-36,-11
-299,-111,188,205,-243,39,120,208,18,61,-36,-12
-299,-111,188,205,-243,39,120,206,17,62,-36,-12
-299,-111,188,205,-243,39,120,205,17,62,-35,-11
-299,-111,188,205,-243,39,120,205,18,63,-34,-11
-299,-111,188,205,-243,39,120,205,18,64,-34,-10
-299,-111,188,205,-243,39,120,205,18,64,-33,-9
-299,-111,188,205,-243,39,120,206,19,65,-32,-9
-299,-111,188,205,-243,39,120,206,20,65,-32,-9
-299,-111,188,205,-243,39,121,207,20,65,-32,-9
-299,-112,187,206,-243,38,122,207,20,66,-31,-8
-299,-112,187,206,-243,38,122,207,21,66,-31,-8
-299,-111,188,205,-243,39,122,206,21,66,-32,-9
-298,-111,187,205,-242,38,123,208,22,66,-33,-9
-298,-112,186,205,-242,37,124,210,23,66,-33,-10
-299,-112,187,206,-243,38,127,215,25,66,-34,-10
-299,-113,186,206,-242,37,129,219,26,64,-36,-12
-300,-115,185,208,-242,35,134,225,27,63,-38,-14
-300,-117,183,209,-241,33,139,232,30,61,-40,-17
-300,-119,181,210,-240,31,144,238,32,58,-44,-21
-299,-120,179,210,-239,30,150,246,35,55,-47,-24
-299,-120,179,210,-239,30,156,256,42,55,-48,-25
-298,-117,181,208,-239,32,163,266,52,57,-48,-25
-295,-112,183,204,-239,36,168,277,63,62,-45,-22
-291,-104,187,198,-239,42,173,291,79,71,-38,-17
-285,-94,191,190,-238,49,178,308,100,86,-26,-7
-277,-82,195,180,-236,57,181,325,125,105,-11,4
-267,-69,198,168,-232,65,185,345,154,131,10,20
-257,-52,205,155,-231,77,188,359,185,162,34,38
-248,-33,215,141,-231,91,188,366,216,199,62,60
-239,-11,228,125,-233,109,185,362,243,240,95,86
-232,12,244,110,-238,128,179,342,258,283,130,113
-227,35,262,96,-244,149,168,304,259,328,167,142
-225,58,283,84,-254,171,149,247,244,372,203,170
-227,81,308,73,-267,195,122,173,217,420,241,199
-229,101,330,64,-279,216,85,89,184,468,277,226
-233,113,346,60,-289,230,47,9,152,514,308,248
-238,112,350,63,-294,231,11,-60,121,548,327,257
-243,97,340,73,-291,219,-22,-115,93,564,329,252
-249,73,322,88,-285,198,-47,-155,69,563,317,237
-255,42,297,107,-276,170,-62,-174,44,544,291,212
-262,6,268,128,-265,137,-70,-179,16,500,249,177
-272,-29,243,151,-257,107,-75,-176,-18,434,196,137
-285,-57,228,171,-256,86,-78,-171,-60,352,140,100
-299,-76,223,188,-261,74,-81,-163,-103,264,84,66
-312,-92,220,202,-266,64,-79,-145,-135,179,32,35
-322,-105,217,214,-269,56,-74,-120,-155,104,-12,7
-329,-115,214,222,-271,50,-66,-90,-166,45,-45,-13
-332,-121,211,227,-271,45,-55,-57,-164,9,-67,-28
-332,-126,206,229,-269,40,-38,-22,-148,-6,-77,-38
-328,-127,201,228,-264,37,-21,15,-121,-3,-77,-40
-322,-124,198,223,-260,37,-5,48,-95,10,-71,-37
-317,-119,198,218,-257,40,10,78,-71,27,-61,-31
-311,-114,197,213,-254,42,26,103,-47,41,-53,-26
-307,-110,197,209,-252,44,44,128,-24,53,-44,-20
-303,-105,198,204,-250,47,58,149,-5,63,-38,-14
-300,-102,198,201,-249,48,71,166,11,71,-31,-10
-299,-99,200,199,-249,51,82,180,24,77,-28,-7
-297,-98,199,198,-248,51,92,192,34,80,-25,-5
-297,-98,199,198,-248,51,100,202,39,84,-22,-3
-296,-99,197,198,-246,49,107,211,43,86,-21,-3
-295,-100,195,198,-245,48,112,218,47,87,-21,-3
-294,-101,193,198,-243,46,116,224,50,87,-20,-3
-293,-102,191,198,-242,45,119,228,52,87,-21,-4
-293,-103,190,198,-241,44,123,232,55,88,-21,-4
-292,-103,189,198,-240,43,124,232,56,87,-22,-5
-291,-103,188,197,-239,43,126,233,58,86,-23,-5
-291,-103,188,197,-239,43,127,233,59,86,-23,-6
-291,-103,188,197,-239,43,128,232,59,85,-23,-6
-291,-103,188,197,-239,43,129,232,60,85,-23,-5
-291,-103,188,197,-239,43,130,232,59,86,-23,-5
-292,-102,190,197,-241,44,131,232,59,86,-22,-4
-292,-102,190,197,-241,44,132,232,59,87,-22,-4
-291,-102,189,197,-240,44,133,231,59,87,-22,-4
-291,-102,189,197,-240,44,134,231,59,87,-22,-4
-291,-102,189,197,-240,44,134,231,59,87,-22,-4
-290,-102,188,196,-239,43,133,230,59,86,-23,-5
-290,-102,188,196,-239,43,134,231,60,87,-22,-5
-289,-102,187,196,-238,43,133,232,59,87,-22,-4
-290,-101,189,196,-239,44,133,233,58,88,-21,-3
-290,-101,189,196,-239,44,133,235,59,90,-20,-2
-289,-101,188,195,-238,44,134,237,59,91,-18,-1
-289,-101,188,195,-238,44,135,238,59,92,-17,-1
-289,-101,188,195,-238,44,136,240,59,92,-17,-1
-289,-101,188,195,-238,44,136,242,61,93,-17,-1
-289,-101,188,195,-238,44,137,243,64,93,-17,-1
-288,-101,187,195,-237,43,137,243,64,92,-18,-2
-288,-101,187,195,-237,43,138,244,66,93,-18,-2
-288,-101,187,195,-237,43,138,245,67,94,-17,-1
-288,-100,188,194,-238,44,138,245,69,95,-16,0
-288,-100,188,194,-238,44,138,246,70,96,-15,0
-288,-100,188,194,-238,44,138,249,71,97,-15,1
-288,-100,188,194,-238,44,138,251,72,98,-14,1
-287,-99,188,193,-237,45,138,252,73,98,-15,0
-287,-99,188,193,-237,45,138,255,75,99,-15,-1
-286,-99,187,193,-236,44,138,257,76,98,-15,-1
-286,-99,187,193,-236,44,139,256,77,98,-15,-1
-285,-98,187,192,-236,45,138,253,78,97,-16,-2
-285,-97,188,191,-236,46,138,252,80,98,-15,-1
-285,-97,188,191,-236,46,138,254,82,99,-14,0
-285,-97,188,191,-236,46,138,255,84,101,-12,1
-285,-96,189,191,-237,47,138,257,85,102,-11,2
-284,-96,188,190,-236,46,137,259,85,103,-11,1
-284,-96,188,190,-236,46,137,263,87,105,-10,2
-283,-96,187,190,-235,46,138,265,88,106,-9,3
-282,-96,186,189,-234,45,139,265,89,107,-9,3
-282,-96,186,189,-234,45,139,265,90,108,-8,4
-281,-96,185,189,-233,45,138,264,91,108,-8,4
-280,-95,185,188,-232,45,138,265,93,109,-7,5
-281,-94,187,188,-234,47,139,265,94,110,-5,6
-281,-94,187,188,-234,47,139,265,95,112,-5,7
-281,-94,187,188,-234,47,139,266,98,114,-4,8
-280,-93,187,187,-233,47,138,265,99,114,-4,8
-280,-93,187,187,-233,47,139,266,101,116,-3,8
-280,-93,187,187,-233,47,139,267,103,117,-3,8
-279,-93,186,186,-232,47,139,267,105,117,-2,8
-278,-92,186,185,-232,47,139,266,105,117,-2,8
-278,-91,187,185,-232,48,139,266,107,119,-1,9
-277,-91,186,184,-231,48,139,265,107,120,-1,9
-276,-90,186,183,-231,48,139,266,108,122,2,11
-275,-89,186,182,-230,49,138,266,109,124,3,12
-275,-88,187,182,-231,50,139,267,111,127,5,13
-274,-87,187,181,-230,50,138,268,112,129,5,14
-274,-87,187,181,-230,50,139,269,115,131,7,15
-273,-86,187,180,-230,51,139,270,118,132,7,15
-273,-86,187,180,-230,51,139,271,121,134,9,15
-272,-85,187,179,-229,51,140,272,123,136,10,17
-271,-85,186,178,-228,51,140,272,125,138,11,17
-270,-84,186,177,-228,51,140,275,127,141,14,19
-269,-82,187,176,-228,53,139,276,130,144,15,20
-268,-81,187,175,-227,53,138,278,131,147,17,21
-267,-80,187,174,-227,54,138,280,133,150,19,22
-266,-79,187,173,-226,54,138,284,136,154,22,24
-265,-79,186,172,-225,54,138,287,139,156,24,25
-263,-77,186,170,-224,55,138,291,143,159,25,26
-262,-76,186,169,-224,55,138,294,147,162,28,27
-260,-75,185,168,-222,55,139,297,151,166,30,29
-259,-73,186,166,-222,57,139,301,155,169,33,30
-257,-71,186,164,-221,58,139,304,160,173,35,33
-256,-69,187,163,-221,59,139,305,164,178,39,35
-255,-67,188,161,-221,61,139,307,165,182,42,37
-253,-65,188,159,-220,62,138,310,168,187,45,39
-251,-64,187,158,-219,62,138,313,171,191,49,41
-250,-62,188,156,-219,63,137,316,174,196,52,43
-248,-61,187,155,-217,63,137,317,177,200,55,45
-246,-59,187,153,-216,64,135,319,181,204,57,47
-244,-57,187,151,-215,65,135,322,185,208,60,49
-243,-56,187,150,-215,66,134,324,188,212,64,52
-242,-53,189,148,-215,68,133,324,191,217,67,54
-240,-51,189,146,-214,69,132,324,193,222,71,57
-239,-49,190,144,-214,71,131,328,195,227,75,60
-238,-47,191,143,-214,72,131,331,197,232,79,63
-236,-44,192,140,-214,74,130,331,198,235,81,64
-235,-42,193,139,-214,76,130,332,200,238,84,67
-233,-41,192,137,-212,76,130,334,202,241,86,69
-232,-39,193,136,-212,77,130,335,204,244,89,71
-231,-37,194,134,-212,79,129,334,206,246,91,72
-230,-35,195,133,-212,80,128,333,206,248,93,74
-229,-33,196,131,-212,82,127,332,206,251,95,76
-229,-32,197,131,-213,83,127,332,208,254,99,79
-229,-30,199,130,-214,85,126,330,207,256,101,82
-228,-29,199,129,-213,85,125,329,206,258,102,83
-228,-27,201,128,-214,87,125,328,206,260,104,85
-228,-26,202,127,-215,88,124,325,204,260,104,85
-228,-26,202,127,-215,88,124,323,203,259,104,86
-228,-25,203,127,-215,89,123,320,202,258,104,86
-228,-25,203,127,-215,89,123,317,200,257,103,85
-229,-25,204,127,-216,90,122,313,198,254,102,85
-230,-25,205,128,-217,90,123,310,196,252,101,85
-232,-25,207,129,-219,91,122,305,191,248,99,84
-234,-25,209,130,-221,92,123,301,187,245,97,83
-236,-26,210,131,-223,92,123,297,182,240,94,81
-238,-28,210,133,-224,91,123,293,176,234,90,79
-240,-30,210,135,-225,90,125,289,171,228,86,77
-243,-33,210,138,-226,89,126,285,165,221,81,74
-245,-36,209,141,-227,87,126,280,158,214,75,71
-247,-38,209,143,-228,86,127,275,152,207,71,68
-249,-41,208,145,-228,84,127,270,144,198,65,64
-251,-44,207,148,-229,82,128,265,137,191,60,61
-254,-47,207,151,-230,80,129,261,131,185,55,58
-256,-50,206,153,-231,78,129,257,124,178,50,55
-259,-54,205,157,-232,76,129,253,118,171,45,52
-262,-57,205,160,-233,74,130,250,111,164,40,48
-265,-61,204,163,-234,72,130,247,106,157,35,45
-267,-64,203,166,-235,70,131,244,101,151,30,41
-268,-67,201,168,-234,67,131,240,96,143,25,37
-270,-70,200,170,-235,65,132,237,92,138,21,34
-272,-73,199,173,-235,63,132,234,88,133,17,32
-273,-76,197,175,-235,61,132,230,83,127,13,29
-275,-78,197,177,-236,60,131,227,79,123,9,26
-277,-80,197,179,-237,59,132,226,75,120,7,25
-278,-82,196,180,-237,57,132,224,70,116,5,23
-280,-85,195,183,-237,55,132,223,66,113,2,21
-281,-87,194,184,-237,54,131,222,64,109,0,19
-282,-89,193,186,-237,52,131,221,61,106,-3,18
-282,-91,191,187,-236,50,131,221,58,103,-5,16
-283,-92,191,188,-237,50,131,220,56,100,-7,14
-284,-94,190,189,-237,48,131,221,56,97,-9,13
-285,-95,190,190,-237,48,130,220,54,94,-11,11
-286,-96,190,191,-238,47,130,221,53,93,-12,10
-287,-97,190,192,-238,47,131,222,53,91,-12,10
-287,-98,189,193,-238,46,131,220,51,90,-14,9
-288,-99,189,194,-238,45,131,220,49,89,-14,9
-288,-100,188,194,-238,44,131,220,48,88,-15,8
-288,-101,187,195,-237,43,131,220,47,88,-16,7
-288,-102,186,195,-237,42,132,220,47,88,-16,7
-288,-103,185,196,-236,41,131,219,46,87,-17,6
-288,-103,185,196,-236,41,131,218,45,87,-18,5
-289,-103,186,196,-237,42,130,218,45,86,-19,4
-289,-103,186,196,-237,42,130,218,45,86,-19,4
-289,-103,186,196,-237,42,129,218,45,85,-19,5
-289,-103,186,196,-237,42,129,218,45,85,-19,5
-289,-103,186,196,-237,42,130,219,45,85,-19,5
-290,-104,186,197,-238,41,131,221,47,85,-18,6
-290,-104,186,197,-238,41,131,221,47,85,-19,5
-289,-104,185,197,-237,41,131,220,47,84,-19,5
-289,-104,185,197,-237,41,131,220,46,84,-19,5
-289,-105,184,197,-236,40,131,219,45,85,-19,5
-289,-104,185,197,-237,41,131,219,44,85,-19,5
-289,-104,185,197,-237,41,131,218,43,86,-18,6
-289,-104,185,197,-237,41,131,218,43,88,-17,7
-289,-104,185,197,-237,41,131,218,43,88,-17,7
-289,-104,185,197,-237,41,132,218,42,89,-16,7
-288,-104,184,196,-236,40,131,218,42,88,-17,6
-288,-104,184,196,-236,40,131,218,44,89,-17,6
-288,-104,184,196,-236,40,132,218,44,88,-17,6
-288,-104,184,196,-236,40,132,218,44,88,-17,6
-287,-104,183,196,-235,40,132,219,45,88,-17,6
-287,-103,184,195,-235,41,132,219,47,89,-17,6
-287,-103,184,195,-235,41,132,219,48,89,-17,7
-288,-103,185,196,-236,41,131,218,48,89,-17,7
-288,-103,185,196,-236,41,132,218,48,90,-17,7
-288,-102,186,195,-237,42,132,217,48,90,-16,8
-288,-103,185,196,-236,41,132,216,48,90,-16,8
-288,-103,185,196,-236,41,133,214,48,90,-16,7
-287,-103,184,195,-235,41,132,214,47,90,-15,7
-286,-103,183,195,-234,40,131,213,46,90,-16,7
-286,-103,183,195,-234,40,131,213,46,90,-15,6
-286,-102,184,194,-235,41,130,214,45,91,-15,6
-286,-102,184,194,-235,41,130,215,44,92,-14,7
-286,-102,184,194,-235,41,129,216,43,92,-14,7
-286,-102,184,194,-235,41,129,216,43,92,-14,7
-286,-101,185,194,-235,42,129,216,44,93,-14,7
-286,-101,185,194,-235,42,129,217,44,92,-14,7
-286,-101,185,194,-235,42,130,217,44,91,-14,7
-286,-101,185,194,-235,42,130,217,45,91,-14,8
-286,-101,185,194,-235,42,130,217,46,90,-14,8
-286,-101,185,194,-235,42,130,217,45,90,-14,8
-286,-101,185,194,-235,42,130,217,45,89,-14,8
-286,-101,185,194,-235,42,130,217,45,90,-13,9
-286,-101,185,194,-235,42,130,218,44,91,-13,9
-286,-100,186,193,-236,43,129,218,43,90,-14,9
-286,-100,186,193,-236,43,129,218,44,90,-14,9
-285,-100,185,193,-235,43,130,219,44,90,-14,8
-285,-100,185,193,-235,43,130,220,45,89,-14,8
-285,-100,185,193,-235,43,130,221,46,88,-15,8
-285,-100,185,193,-235,43,131,222,47,88,-15,8
-285,-100,185,193,-235,43,131,222,47,87,-16,7
-285,-100,185,193,-235,43,131,221,46,86,-16,7
-286,-100,186,193,-236,43,130,219,44,86,-16,7
-286,-100,186,193,-236,43,130,219,43,86,-16,7
-286,-100,186,193,-236,43,130,219,42,85,-16,7
-286,-100,186,193,-236,43,129,218,41,84,-17,7
-286,-100,186,193,-236,43,129,217,41,84,-17,7
-285,-100,185,193,-235,43,129,218,42,83,-17,7
-285,-101,184,193,-234,42,128,218,42,83,-18,6
-285,-101,184,193,-234,42,128,218,41,82,-18,6
-285,-101,184,193,-234,42,128,217,38,82,-19,5
-285,-101,184,193,-234,42,127,217,37,82,-19,5
-285,-101,184,193,-234,42,127,216,36,82,-19,5
-285,-101,184,193,-234,42,127,216,36,82,-19,6
-286,-101,185,194,-235,42,128,216,37,83,-18,7
-285,-101,184,193,-234,42,127,215,36,81,-19,6
-285,-101,184,193,-234,42,127,215,37,81,-19,6
-285,-101,184,193,-234,42,128,215,37,80,-19,5
-285,-101,184,193,-234,42,128,214,37,79,-20,5
-285,-102,183,194,-234,41,129,214,36,79,-19,5
-285,-102,183,194,-234,41,128,213,34,79,-20,5
-286,-102,184,194,-235,41,128,211,33,78,-20,4
-287,-102,185,195,-236,42,127,209,32,78,-20,4
-287,-102,185,195,-236,42,127,208,31,77,-21,4
-287,-102,185,195,-236,42,126,208,30,77,-22,4
-287,-102,185,195,-236,42,126,208,30,77,-22,3
-287,-102,185,195,-236,42,127,208,31,76,-23,3
-287,-103,184,195,-235,41,128,210,32,76,-22,3
-287,-103,184,195,-235,41,128,210,31,75,-23,3
-287,-103,184,195,-235,41,128,209,30,75,-23,2
-287,-104,183,196,-235,40,128,207,29,74,-23,2
-287,-104,183,196,-235,40,128,205,29,73,-23,2
-288,-104,184,196,-236,40,127,203,28,73,-24,2
-288,-105,183,197,-235,39,127,204,28,74,-23,3
-288,-105,183,197,-235,39,127,204,28,74,-23,3
-288,-105,183,197,-235,39,126,204,28,74,-23,2
-288,-105,183,197,-235,39,126,205,28,74,-24,2
-288,-105,183,197,-235,39,127,206,28,73,-25,2
-288,-105,183,197,-235,39,127,206,27,73,-25,1
-288,-106,182,197,-235,38,127,205,27,72,-25,1
-287,-106,181,197,-234,38,127,205,26,72,-26,1
"
		-287","
		-106","
		181","
		197","
		-234","
		38","
		126","
		204","
		25","
		72","
		-25","
		1"
-287,-106,181,197,-234,38,126,203,24,72,-25,1
-288,-106,182,197,-235,38,126,203,23,71,-25,1
-288,-106,182,197,-235,38,126,203,23,71,-25,1
-288,-106,182,197,-235,38,126,203,22,71,-25,1
-288,-106,182,197,-235,38,127,203,22,70,-26,1
-288,-107,181,198,-234,37,127,203,22,69,-26,0
-288,-108,180,198,-234,36,128,205,24,70,-26,1
-288,-108,180,198,-234,36,128,205,24,71,-26,0
-288,-108,180,198,-234,36,127,204,24,71,-26,0
-288,-108,180,198,-234,36,127,205,24,72,-26,0
-288,-108,180,198,-234,36,127,204,23,73,-25,1
-287,-107,180,197,-233,37,126,203,22,72,-26,0
-287,-107,180,197,-233,37,127,203,21,73,-25,1
-287,-107,180,197,-233,37,126,203,21,73,-25,1
-288,-107,181,198,-234,37,126,203,21,72,-25,1
-288,-108,180,198,-234,36,127,204,22,73,-24,2
-288,-108,180,198,-234,36,127,204,23,72,-25,1
-288,-108,180,198,-234,36,127,205,24,72,-25,1
-288,-108,180,198,-234,36,127,206,25,71,-26,1
-288,-108,180,198,-234,36,127,205,26,71,-26,1
-288,-107,181,198,-234,37,126,204,24,71,-26,0
-288,-107,181,198,-234,37,126,204,24,71,-26,0
-288,-106,182,197,-235,38,127,204,23,70,-27,1
-288,-106,182,197,-235,38,127,203,23,70,-27,1
-288,-106,182,197,-235,38,127,203,23,70,-27,0
-288,-107,181,198,-234,37,127,203,23,69,-28,0
-288,-107,181,198,-234,37,127,204,23,69,-28,-1
-288,-107,181,198,-234,37,126,204,23,68,-28,-1
-288,-108,180,198,-234,36,127,205,24,69,-27,0
-289,-108,181,199,-235,37,127,205,24,70,-27,-1
-289,-108,181,199,-235,37,127,203,23,70,-27,0
-289,-107,182,198,-235,38,127,201,22,70,-27,0
-289,-108,181,199,-235,37,126,200,22,70,-27,-1
-289,-108,181,199,-235,37,126,200,21,71,-27,-1
-289,-108,181,199,-235,37,126,200,21,71,-27,-1
-289,-108,181,199,-235,37,126,201,21,71,-27,-1
-289,-108,181,199,-235,37,126,202,22,70,-27,-1
-289,-109,180,199,-234,36,125,203,22,70,-27,-1
-288,-109,179,199,-233,35,125,203,23,70,-27,-2
-288,-109,179,199,-233,35,125,201,23,70,-27,-1
-288,-108,180,198,-234,36,125,199,23,70,-27,-1
-288,-108,180,198,-234,36,125,199,23,70,-26,-1
-289,-108,181,199,-235,37,125,200,23,70,-27,0
-289,-108,181,199,-235,37,125,200,22,70,-27,0
-288,-108,180,198,-234,36,125,200,22,70,-27,-1
-288,-108,180,198,-234,36,125,202,22,69,-27,-1
-288,-108,180,198,-234,36,125,203,23,69,-28,-1
-287,-108,179,198,-233,36,124,202,22,68,-29,-3
-287,-108,179,198,-233,36,124,201,23,68,-29,-3
-287,-108,179,198,-233,36,124,202,24,69,-29,-3
-288,-108,180,198,-234,36,125,203,25,70,-27,-2
-288,-108,180,198,-234,36,125,203,24,70,-28,-2
-288,-108,180,198,-234,36,125,202,24,70,-28,-2
-289,-108,181,199,-235,37,125,202,24,69,-28,-2
-289,-108,181,199,-235,37,125,201,24,69,-28,-2
-289,-108,181,199,-235,37,125,201,24,69,-28,-2
-288,-108,180,198,-234,36,124,200,24,68,-29,-2
-288,-109,179,199,-233,35,124,200,24,68,-29,-2
-288,-109,179,199,-233,35,124,200,23,68,-29,-2
-288,-109,179,199,-233,35,124,200,23,68,-29,-2
-288,-109,179,199,-233,35,123,200,23,68,-29,-2
-289,-109,180,199,-234,36,123,199,22,69,-28,-2
-289,-109,180,199,-234,36,123,199,22,69,-29,-2
-289,-109,180,199,-234,36,124,200,23,69,-29,-2
-289,-108,181,199,-235,37,124,200,23,69,-29,-2
-289,-108,181,199,-235,37,124,199,24,68,-29,-3
-289,-109,180,199,-234,36,124,199,24,68,-30,-3
-289,-109,180,199,-234,36,124,199,25,67,-30,-4
-289,-109,180,199,-234,36,124,200,26,66,-30,-4
-289,-108,181,199,-235,37,124,199,26,66,-30,-4
-290,-108,182,199,-236,37,125,200,25,66,-29,-4
-289,-108,181,199,-235,37,125,200,24,67,-29,-3
-289,-108,181,199,-235,37,125,200,23,67,-29,-3
-290,-109,181,200,-235,36,126,200,22,68,-28,-2
-289,-109,180,199,-234,36,125,196,19,68,-29,-3
-289,-109,180,199,-234,36,125,194,18,68,-29,-3
-288,-110,178,199,-233,34,124,194,18,68,-29,-3
-288,-110,178,199,-233,34,124,194,18,69,-29,-3
-287,-110,177,199,-232,34,124,194,19,69,-29,-3
-287,-110,177,199,-232,34,124,194,20,70,-28,-3
-287,-110,177,199,-232,34,124,197,22,70,-28,-3
-287,-110,177,199,-232,34,123,199,23,70,-28,-3
-287,-109,178,198,-232,35,124,199,23,69,-29,-3
-288,-109,179,199,-233,35,124,199,23,69,-28,-3
-288,-109,179,199,-233,35,125,199,23,69,-28,-3
-288,-109,179,199,-233,35,125,199,23,68,-29,-3
-289,-109,180,199,-234,36,125,199,23,68,-29,-3
-289,-109,180,199,-234,36,126,199,23,68,-29,-3
-289,-108,181,199,-235,37,126,198,23,68,-29,-4
-289,-109,180,199,-234,36,125,198,23,68,-29,-4
-289,-109,180,199,-234,36,125,197,22,67,-29,-4
-289,-109,180,199,-234,36,124,197,22,67,-29,-4
-289,-109,180,199,-234,36,123,197,22,67,-29,-4
-289,-109,180,199,-234,36,123,197,21,66,-29,-4
-289,-109,180,199,-234,36,124,197,21,66,-29,-4
-289,-110,179,200,-234,35,125,197,23,67,-28,-3
-289,-110,179,200,-234,35,125,197,23,68,-28,-3
-288,-110,178,199,-233,34,124,196,22,67,-29,-5
-289,-110,179,200,-234,35,125,197,23,68,-28,-4
-288,-110,178,199,-233,34,124,195,23,67,-29,-5
-288,-109,179,199,-233,35,124,196,23,67,-29,-5
