I,II,III,aVR,aVL,aVF,V1,V2,V3,V4,V5,V6
-135,-153,-18,144,-58,-85,48,-31,-71,-16,-98,-115
-135,-152,-17,144,-59,-84,53,-23,-65,-17,-100,-117
-134,-149,-15,142,-59,-82,59,-13,-56,-15,-99,-116
-132,-144,-12,138,-60,-78,65,0,-43,-10,-95,-113
-128,-136,-8,132,-60,-72,71,17,-26,-1,-89,-108
-123,-125,-2,124,-60,-63,77,36,-5,13,-80,-101
-115,-113,2,114,-58,-55,85,57,22,32,-66,-90
-107,-99,8,103,-57,-45,92,77,51,54,-50,-78
-99,-82,17,91,-58,-32,97,94,84,84,-29,-63
-90,-62,28,76,-59,-17,98,103,114,117,-5,-44
-83,-39,44,61,-63,3,94,95,135,153,22,-22
-79,-15,64,47,-71,25,82,64,140,191,53,3
-76,11,87,33,-81,49,58,7,126,228,84,28
-77,37,114,20,-95,76,25,-69,99,267,117,56
-80,64,144,8,-112,104,-20,-164,61,306,150,84
-84,89,173,-2,-128,131,-71,-267,18,346,183,111
-89,107,196,-9,-142,152,-125,-365,-23,381,208,130
-95,111,206,-8,-150,159,-170,-440,-53,409,224,141
-99,101,200,-1,-149,151,-206,-492,-74,424,225,139
-104,79,183,13,-143,131,-232,-523,-92,423,213,126
-107,49,156,29,-131,103,-249,-533,-108,405,189,104
-112,10,122,51,-117,66,-255,-523,-125,370,154,75
-117,-32,85,75,-101,27,-255,-503,-149,313,108,39
-124,-68,56,96,-90,-6,-248,-479,-182,241,61,6
-131,-94,37,113,-84,-28,-240,-453,-218,163,16,-25
-138,-115,23,127,-80,-46,-225,-419,-244,90,-25,-53
-144,-131,13,138,-78,-59,-204,-380,-260,27,-59,-77
-148,-141,7,145,-77,-67,-179,-340,-265,-18,-84,-95
-150,-146,4,148,-77,-71,-153,-300,-256,-44,-98,-106
-151,-145,6,148,-78,-69,-128,-259,-232,-49,-103,-111
-149,-141,8,145,-78,-66,-107,-222,-199,-39,-100,-111
-146,-135,11,141,-78,-62,-89,-191,-169,-23,-93,-107
-143,-129,14,136,-78,-57,-71,-164,-143,-8,-85,-102
-141,-124,17,133,-79,-53,-54,-141,-119,6,-77,-96
-139,-119,20,129,-79,-49,-40,-121,-100,16,-71,-92
-136,-117,19,127,-77,-49,-29,-106,-85,22,-67,-89
-135,-116,19,126,-77,-48,-18,-91,-73,27,-64,-87
-133,-116,17,125,-75,-49,-7,-79,-63,30,-62,-86
-132,-117,15,125,-73,-51,1,-69,-56,31,-61,-86
-132,-119,13,126,-72,-53,7,-63,-52,31,-62,-86
-131,-120,11,126,-71,-54,11,-57,-50,30,-63,-87
-130,-121,9,126,-69,-56,16,-52,-48,30,-63,-89
-130,-122,8,126,-69,-57,20,-47,-45,30,-63,-89
-129,-123,6,126,-67,-58,22,-44,-44,29,-64,-90
-129,-123,6,126,-67,-58,24,-42,-43,27,-65,-91
-129,-123,6,126,-67,-58,25,-40,-42,26,-66,-92
-128,-123,5,126,-66,-59,26,-39,-41,25,-68,-93
-128,-124,4,126,-66,-60,27,-37,-40,26,-67,-93
-128,-124,4,126,-66,-60,28,-36,-39,26,-67,-92
-128,-123,5,126,-66,-59,27,-35,-39,25,-68,-93
-128,-123,5,126,-66,-59,28,-34,-39,26,-67,-93
-128,-123,5,126,-66,-59,29,-31,-38,26,-67,-93
-128,-122,6,125,-67,-58,31,-29,-37,27,-66,-92
-127,-121,6,124,-66,-57,31,-28,-36,26,-67,-93
-126,-121,5,124,-65,-58,33,-26,-35,27,-67,-93
-125,-120,5,123,-65,-57,33,-26,-34,27,-67,-93
-123,-119,4,121,-63,-57,33,-26,-33,27,-68,-94
-123,-119,4,121,-63,-57,33,-25,-32,28,-67,-93
-123,-119,4,121,-63,-57,33,-24,-31,29,-66,-93
-123,-119,4,121,-63,-57,33,-24,-30,30,-66,-93
-123,-119,4,121,-63,-57,33,-23,-30,30,-66,-93
-124,-120,4,122,-64,-58,34,-22,-29,32,-65,-92
-125,-121,4,123,-64,-58,36,-20,-28,32,-64,-92
-125,-121,4,123,-64,-58,36,-19,-27,32,-65,-92
-125,-121,4,123,-64,-58,37,-18,-26,33,-65,-92
-124,-121,3,123,-63,-59,37,-18,-25,33,-65,-92
-123,-121,2,122,-62,-59,37,-17,-24,34,-65,-92
-123,-120,3,122,-63,-58,37,-16,-22,34,-64,-91
-123,-119,4,121,-63,-57,36,-15,-22,35,-64,-91
-123,-119,4,121,-63,-57,36,-14,-22,36,-63,-90
-123,-119,4,121,-63,-57,36,-13,-21,37,-62,-90
-123,-118,5,121,-64,-56,37,-12,-20,38,-62,-90
-123,-118,5,121,-64,-56,39,-10,-18,39,-61,-89
-122,-117,5,120,-63,-56,39,-10,-17,39,-61,-90
-121,-117,4,119,-62,-56,40,-8,-16,40,-61,-90
-121,-117,4,119,-62,-56,41,-7,-13,42,-60,-89
-120,-116,4,118,-62,-56,41,-8,-13,42,-61,-90
-120,-117,3,119,-61,-57,41,-7,-11,43,-59,-89
-120,-117,3,119,-61,-57,40,-7,-11,43,-59,-90
-120,-117,3,119,-61,-57,40,-6,-10,44,-58,-89
-120,-117,3,119,-61,-57,41,-5,-9,45,-57,-89
-119,-116,3,118,-61,-56,40,-5,-9,45,-57,-89
-119,-116,3,118,-61,-56,41,-4,-8,46,-57,-89
-119,-116,3,118,-61,-56,42,-3,-7,47,-57,-89
-119,-115,4,117,-61,-55,43,-2,-5,48,-56,-88
-119,-115,4,117,-61,-55,44,-1,-3,49,-56,-88
-119,-115,4,117,-61,-55,44,0,-1,49,-56,-88
-120,-115,5,118,-62,-55,44,1,0,51,-56,-88
-120,-114,6,117,-63,-54,44,3,2,52,-54,-87
-120,-113,7,117,-63,-53,44,3,3,53,-54,-87
-120,-111,9,116,-64,-51,45,6,5,56,-52,-85
-121,-110,11,116,-66,-49,46,7,6,57,-51,-84
-121,-110,11,116,-66,-49,47,9,8,59,-50,-83
-121,-110,11,116,-66,-49,48,10,9,60,-49,-83
-120,-110,10,115,-65,-50,48,10,10,60,-50,-84
-119,-110,9,115,-64,-50,48,12,12,61,-49,-84
-119,-110,9,115,-64,-50,49,13,14,62,-49,-83
-118,-110,8,114,-63,-51,49,14,16,63,-48,-83
-117,-109,8,113,-62,-50,48,15,17,64,-48,-83
-117,-109,8,113,-62,-50,48,16,18,66,-46,-82
-117,-108,9,113,-63,-49,48,17,20,67,-45,-81
-117,-108,9,113,-63,-49,49,20,22,69,-44,-80
-116,-107,9,112,-62,-49,49,21,23,71,-44,-80
-115,-106,9,111,-62,-48,49,22,24,71,-44,-80
-115,-106,9,111,-62,-48,49,24,26,72,-44,-80
-115,-106,9,111,-62,-48,50,25,28,73,-43,-80
-115,-106,9,111,-62,-48,50,27,30,75,-42,-80
-115,-106,9,111,-62,-48,49,28,32,77,-42,-79
-116,-106,10,111,-63,-48,50,30,34,79,-40,-78
-116,-105,11,111,-63,-47,49,31,35,80,-39,-78
-115,-103,12,109,-63,-45,49,33,37,82,-38,-77
-114,-102,12,108,-63,-45,51,36,40,86,-36,-76
-113,-101,12,107,-62,-44,52,39,43,88,-35,-75
-112,-101,11,107,-61,-45,53,42,46,90,-33,-74
-111,-100,11,106,-61,-44,54,44,48,92,-33,-74
-110,-100,10,105,-60,-45,55,47,52,94,-31,-73
-109,-99,10,104,-59,-44,55,49,54,96,-30,-72
-108,-98,10,103,-59,-44,55,52,57,98,-30,-72
-108,-97,11,103,-59,-43,56,55,60,101,-28,-70
-107,-96,11,102,-59,-42,56,57,63,104,-26,-69
-106,-94,12,100,-59,-41,57,61,66,108,-24,-67
-105,-92,13,99,-59,-39,58,64,69,111,-22,-65
-105,-91,14,98,-59,-38,59,68,73,115,-20,-63
-105,-91,14,98,-59,-38,61,71,76,118,-18,-62
-105,-90,15,98,-60,-37,62,75,80,121,-16,-61
-104,-90,14,97,-59,-38,61,77,83,124,-15,-61
-104,-90,14,97,-59,-38,61,80,87,127,-13,-59
-104,-89,15,97,-59,-37,62,84,92,132,-11,-57
-102,-87,15,95,-58,-36,63,87,96,136,-8,-55
-101,-84,17,93,-59,-33,62,91,100,140,-6,-54
-99,-82,17,91,-58,-32,63,95,105,146,-2,-51
-97,-79,18,88,-57,-30,64,98,109,150,0,-49
-96,-77,19,87,-57,-29,66,103,114,156,4,-46
-94,-75,19,85,-56,-28,67,107,119,161,6,-44
-93,-74,19,84,-56,-27,67,110,123,165,9,-43
-92,-72,20,82,-56,-26,68,113,128,170,11,-41
-90,-70,20,80,-55,-25,68,117,133,176,15,-38
-88,-68,20,78,-54,-24,68,120,138,181,18,-36
-87,-66,21,77,-54,-22,67,123,142,186,21,-34
-86,-63,23,75,-54,-20,66,125,146,191,24,-32
-84,-61,23,73,-53,-19,65,127,150,197,27,-29
-84,-59,25,72,-54,-17,65,130,154,202,30,-27
-82,-57,25,70,-53,-16,66,134,159,208,34,-24
-81,-54,27,68,-54,-13,67,137,164,214,38,-21
-79,-51,28,65,-53,-11,66,140,169,219,41,-18
-78,-48,30,63,-54,-9,67,143,175,226,46,-15
-76,-45,31,61,-53,-7,67,146,179,232,49,-12
-74,-41,33,58,-53,-4,66,148,184,238,53,-9
-73,-38,35,56,-54,-1,66,151,189,244,58,-5
-72,-35,37,54,-54,1,65,152,192,249,61,-3
-71,-33,38,52,-54,3,64,153,196,255,65,0
-70,-31,39,51,-54,4,64,155,199,260,68,3
-70,-29,41,50,-55,6,64,157,203,266,72,6
-69,-27,42,48,-55,8,64,158,206,270,75,8
-68,-25,43,47,-55,9,63,158,209,274,77,10
-66,-22,44,44,-55,11,61,157,211,277,79,11
-65,-20,45,43,-55,13,61,157,213,281,82,14
-63,-17,46,40,-54,15,58,155,215,283,84,16
-62,-14,48,38,-55,17,57,154,216,286,87,18
-61,-11,50,36,-55,20,56,152,216,288,90,20
-60,-9,51,35,-55,21,55,149,216,290,91,22
-60,-7,53,34,-56,23,53,145,213,289,92,23
-62,-7,55,35,-58,24,53,141,212,289,94,24
-63,-7,56,35,-59,25,51,136,208,287,92,24
-65,-8,57,37,-61,25,50,130,204,283,91,23
-66,-9,57,38,-61,24,48,124,198,278,89,22
-69,-11,58,40,-63,24,45,117,192,272,86,20
-71,-13,58,42,-64,23,45,110,186,266,84,19
-72,-14,58,43,-65,22,42,102,177,258,80,17
-73,-16,57,45,-65,21,41,96,169,250,76,15
-74,-17,57,46,-65,20,41,89,160,242,72,12
-76,-19,57,48,-66,19,40,82,151,233,67,9
-77,-21,56,49,-66,18,40,74,141,223,62,6
-79,-24,55,52,-67,16,40,68,131,213,57,3
-82,-28,54,55,-68,13,39,61,121,202,51,-2
-84,-33,51,59,-67,9,40,54,112,192,45,-6
-87,-37,50,62,-68,7,38,46,101,181,38,-11
-89,-43,46,66,-67,2,38,39,91,170,32,-15
-93,-48,45,71,-69,-1,37,32,80,160,26,-20
-96,-53,43,75,-69,-5,35,24,68,148,18,-26
-99,-59,40,79,-69,-9,34,17,58,138,12,-31
-103,-64,39,84,-71,-12,34,12,48,128,6,-35
-106,-70,36,88,-71,-17,35,6,39,119,0,-39
-109,-75,34,92,-71,-20,35,1,31,111,-6,-43
-112,-80,32,96,-72,-24,35,-4,24,103,-11,-47
-113,-84,29,99,-71,-27,34,-9,16,93,-17,-52
-114,-88,26,101,-70,-31,35,-13,10,86,-22,-56
-115,-92,23,104,-69,-34,35,-17,4,80,-26,-58
-115,-95,20,105,-67,-37,34,-21,-3,73,-31,-62
-116,-98,18,107,-67,-40,33,-25,-10,67,-35,-65
-118,-101,17,110,-67,-42,34,-28,-15,62,-37,-67
-119,-104,15,112,-67,-44,33,-31,-21,57,-41,-71
-120,-108,12,114,-66,-48,34,-33,-26,52,-44,-73
-121,-110,11,116,-66,-49,34,-35,-30,48,-47,-75
-122,-113,9,118,-65,-52,34,-38,-33,44,-50,-77
-123,-116,7,120,-65,-54,34,-40,-36,40,-52,-79
-123,-118,5,121,-64,-56,34,-41,-39,37,-55,-81
-124,-120,4,122,-64,-58,34,-43,-41,35,-56,-83
-125,-121,4,123,-64,-58,34,-45,-44,32,-58,-84
-127,-123,4,125,-65,-59,34,-46,-46,30,-59,-85
-128,-125,3,127,-65,-61,34,-47,-48,29,-60,-85
-128,-125,3,127,-65,-61,34,-48,-50,27,-62,-86
-128,-126,2,127,-65,-62,34,-49,-52,25,-63,-87
-128,-126,2,127,-65,-62,35,-49,-53,24,-63,-88
-127,-126,1,127,-64,-62,35,-50,-54,23,-64,-89
-126,-127,-1,127,-62,-64,35,-50,-55,22,-65,-90
-127,-128,-1,128,-63,-64,35,-50,-55,21,-65,-90
-128,-129,-1,129,-63,-65,34,-51,-56,20,-67,-91
-128,-129,-1,129,-63,-65,33,-52,-57,19,-68,-92
-129,-129,0,129,-64,-64,33,-51,-57,20,-68,-92
-129,-130,-1,130,-64,-65,33,-52,-58,19,-68,-92
-129,-130,-1,130,-64,-65,33,-52,-59,18,-68,-92
-129,-131,-2,130,-63,-66,33,-53,-60,18,-69,-92
-129,-131,-2,130,-63,-66,32,-53,-60,17,-70,-93
-129,-132,-3,131,-63,-67,33,-53,-60,17,-70,-93
-129,-132,-3,131,-63,-67,33,-54,-60,16,-70,-93
-128,-133,-5,131,-61,-69,32,-54,-60,15,-70,-94
-128,-132,-4,130,-62,-68,31,-55,-61,14,-71,-95
-128,-132,-4,130,-62,-68,31,-55,-60,15,-71,-94
-128,-131,-3,130,-62,-67,32,-55,-60,16,-70,-93
-128,-130,-2,129,-63,-66,32,-54,-60,16,-70,-93
-129,-131,-2,130,-63,-66,32,-55,-60,16,-70,-93
-130,-131,-1,131,-64,-66,33,-54,-60,17,-69,-92
-130,-132,-2,131,-64,-67,33,-54,-60,17,-70,-93
-131,-132,-1,132,-65,-66,33,-54,-60,16,-70,-93
-131,-132,-1,132,-65,-66,33,-54,-60,16,-71,-93
-131,-132,-1,132,-65,-66,33,-53,-60,16,-70,-93
-131,-132,-1,132,-65,-66,33,-53,-59,16,-70,-93
-130,-131,-1,131,-64,-66,33,-53,-59,16,-70,-93
-130,-130,0,130,-65,-65,32,-53,-60,16,-70,-93
-129,-129,0,129,-64,-64,33,-53,-60,17,-69,-92
-129,-128,1,129,-65,-63,33,-53,-60,17,-69,-92
-128,-128,0,128,-64,-64,33,-52,-59,17,-69,-91
-128,-127,1,128,-64,-63,34,-51,-59,17,-68,-91
-127,-127,0,127,-63,-63,33,-52,-59,17,-69,-91
-127,-127,0,127,-63,-63,33,-52,-59,16,-70,-92
-128,-127,1,128,-64,-63,34,-52,-58,16,-69,-91
-129,-128,1,129,-65,-63,33,-54,-59,15,-70,-92
-129,-127,2,128,-65,-62,32,-54,-60,15,-70,-93
-129,-127,2,128,-65,-62,32,-55,-60,15,-71,-93
-129,-127,2,128,-65,-62,32,-54,-61,15,-70,-93
-129,-126,3,128,-66,-61,32,-54,-61,15,-70,-92
-129,-126,3,128,-66,-61,33,-53,-60,16,-70,-92
-128,-127,1,128,-64,-63,33,-53,-60,16,-70,-92
-129,-127,2,128,-65,-62,33,-53,-60,16,-70,-93
-129,-128,1,129,-65,-63,33,-53,-61,16,-71,-93
-129,-128,1,129,-65,-63,32,-53,-61,15,-71,-93
-129,-128,1,129,-65,-63,32,-54,-61,15,-72,-93
-129,-128,1,129,-65,-63,32,-54,-61,15,-71,-93
-129,-128,1,129,-65,-63,31,-55,-61,15,-71,-93
-129,-128,1,129,-65,-63,31,-55,-62,15,-71,-92
-129,-128,1,129,-65,-63,31,-55,-62,15,-71,-92
-130,-128,2,129,-66,-63,32,-54,-62,15,-70,-91
-129,-128,1,129,-65,-63,30,-55,-63,14,-72,-93
-129,-128,1,129,-65,-63,30,-55,-63,14,-72,-93
-128,-128,0,128,-64,-64,31,-55,-62,14,-72,-93
-128,-128,0,128,-64,-64,31,-55,-62,13,-72,-93
-128,-128,0,128,-64,-64,31,-55,-62,13,-72,-93
-128,-128,0,128,-64,-64,30,-56,-63,13,-72,-93
-128,-128,0,128,-64,-64,30,-56,-63,12,-72,-93
-129,-128,1,129,-65,-63,30,-56,-64,12,-72,-93
-129,-128,1,129,-65,-63,30,-57,-65,12,-72,-93
-130,-128,2,129,-66,-63,31,-56,-65,12,-71,-92
-129,-128,1,129,-65,-63,30,-57,-66,10,-73,-93
-129,-128,1,129,-65,-63,30,-58,-66,10,-73,-94
-129,-128,1,129,-65,-63,30,-58,-66,10,-73,-93
-128,-128,0,128,-64,-64,30,-58,-66,10,-73,-93
-128,-128,0,128,-64,-64,30,-59,-66,10,-73,-93
-127,-127,0,127,-63,-63,28,-61,-68,9,-74,-94
-127,-127,0,127,-63,-63,28,-61,-68,9,-75,-94
-127,-127,0,127,-63,-63,28,-61,-69,9,-74,-94
-127,-127,0,127,-63,-63,28,-61,-69,9,-74,-94
-127,-127,0,127,-63,-63,28,-62,-70,8,-75,-94
-128,-127,1,128,-64,-63,28,-61,-69,9,-74,-93
-129,-128,1,129,-65,-63,28,-61,-69,8,-74,-93
-130,-129,1,130,-65,-64,28,-60,-68,8,-74,-93
-131,-130,1,131,-66,-64,29,-60,-68,8,-74,-93
-132,-130,2,131,-67,-64,28,-61,-69,7,-75,-93
-132,-130,2,131,-67,-64,27,-62,-70,7,-75,-93
-132,-130,2,131,-67,-64,27,-62,-70,7,-74,-93
-131,-129,2,130,-66,-63,27,-63,-71,7,-75,-93
-131,-128,3,130,-67,-62,28,-62,-71,8,-74,-92
-130,-127,3,129,-66,-62,28,-63,-71,8,-74,-93
-129,-127,2,128,-65,-62,28,-62,-71,8,-73,-92
-128,-126,2,127,-65,-62,28,-63,-72,7,-75,-94
-127,-127,0,127,-63,-63,28,-63,-72,6,-75,-94
-127,-127,0,127,-63,-63,27,-64,-73,6,-76,-94
-127,-128,-1,128,-63,-64,27,-64,-73,6,-76,-94
-127,-129,-2,128,-62,-65,27,-65,-74,5,-76,-94
-127,-129,-2,128,-62,-65,26,-66,-75,5,-77,-95
-128,-129,-1,129,-63,-65,25,-67,-75,4,-77,-95
-128,-129,-1,129,-63,-65,26,-67,-76,4,-77,-95
-129,-129,0,129,-64,-64,27,-66,-75,5,-76,-95
-130,-129,1,130,-65,-64,27,-66,-75,5,-77,-95
-131,-130,1,131,-66,-64,27,-66,-74,5,-77,-95
-131,-130,1,131,-66,-64,27,-66,-75,4,-77,-95
-131,-129,2,130,-66,-63,26,-68,-76,3,-78,-96
-132,-129,3,131,-67,-63,27,-67,-75,4,-77,-95
-132,-129,3,131,-67,-63,27,-68,-75,4,-77,-95
-132,-128,4,130,-68,-62,26,-69,-76,3,-78,-95
-132,-128,4,130,-68,-62,26,-69,-76,4,-77,-95
"
		-132","
		-128","
		4","
		130","
		-68","
		-62","
		27","
		-68","
		-76","
		4","
		-77","
		-95"
-132,-128,4,130,-68,-62,27,-68,-76,4,-77,-95
-131,-128,3,130,-67,-62,28,-68,-76,4,-78,-95
-131,-128,3,130,-67,-62,27,-68,-77,4,-78,-96
-131,-129,2,130,-66,-63,27,-68,-77,3,-78,-96
-131,-129,2,130,-66,-63,27,-69,-77,2,-78,-96
-131,-129,2,130,-66,-63,26,-70,-78,2,-79,-97
-131,-129,2,130,-66,-63,25,-71,-79,1,-79,-97
-131,-129,2,130,-66,-63,25,-72,-79,1,-79,-97
-131,-128,3,130,-67,-62,26,-72,-79,1,-79,-97
-131,-128,3,130,-67,-62,27,-71,-79,2,-79,-97
-131,-128,3,130,-67,-62,27,-71,-79,1,-79,-97
-131,-128,3,130,-67,-62,28,-71,-79,1,-79,-97
-131,-129,2,130,-66,-63,27,-72,-79,0,-79,-98
-132,-130,2,131,-67,-64,28,-71,-79,0,-79,-98
-133,-131,2,132,-67,-64,28,-71,-79,1,-79,-97
-134,-131,3,133,-68,-64,28,-71,-79,1,-79,-98
-134,-131,3,133,-68,-64,27,-72,-79,1,-79,-98
-134,-130,4,132,-69,-63,28,-71,-79,1,-79,-98
-134,-130,4,132,-69,-63,28,-71,-78,2,-79,-97
-134,-129,5,132,-69,-62,28,-71,-79,1,-79,-98
-134,-129,5,132,-69,-62,28,-71,-79,1,-80,-99
-135,-130,5,133,-70,-62,29,-70,-79,1,-80,-98
-135,-130,5,133,-70,-62,29,-70,-79,1,-80,-98
-134,-130,4,132,-69,-63,29,-70,-79,1,-80,-98
-134,-130,4,132,-69,-63,29,-71,-79,1,-80,-99
-134,-129,5,132,-69,-62,28,-72,-80,0,-81,-100
-134,-129,5,132,-69,-62,28,-72,-80,0,-81,-99
-134,-128,6,131,-70,-61,27,-72,-80,0,-80,-99
-134,-128,6,131,-70,-61,27,-72,-80,1,-80,-99
-134,-128,6,131,-70,-61,27,-72,-80,1,-81,-99
-134,-128,6,131,-70,-61,27,-72,-80,0,-81,-99
-133,-129,4,131,-68,-62,27,-72,-80,0,-81,-100
-133,-129,4,131,-68,-62,27,-72,-80,0,-82,-100
-133,-130,3,132,-68,-63,27,-72,-80,-1,-82,-100
-132,-130,2,131,-67,-64,27,-72,-80,-1,-82,-101
-133,-130,3,132,-68,-63,27,-72,-80,-1,-82,-101
-133,-130,3,132,-68,-63,27,-73,-80,-1,-82,-101
-133,-130,3,132,-68,-63,26,-73,-81,-1,-82,-101
-134,-129,5,132,-69,-62,26,-73,-81,-1,-82,-102
-134,-130,4,132,-69,-63,27,-72,-80,0,-81,-101
-134,-130,4,132,-69,-63,28,-72,-80,0,-81,-101
-134,-129,5,132,-69,-62,27,-73,-81,-1,-82,-101
-134,-130,4,132,-69,-63,28,-72,-80,0,-81,-100
-134,-130,4,132,-69,-63,28,-73,-80,-1,-82,-101
-134,-130,4,132,-69,-63,27,-73,-80,-1,-82,-101
-134,-130,4,132,-69,-63,28,-73,-80,-1,-81,-100
-134,-130,4,132,-69,-63,28,-73,-80,-1,-81,-100
-134,-130,4,132,-69,-63,27,-73,-80,-1,-82,-101
-135,-130,5,133,-70,-62,28,-73,-80,0,-82,-100
-135,-130,5,133,-70,-62,28,-72,-80,0,-81,-100
-134,-129,5,132,-69,-62,27,-73,-81,-1,-82,-101
-134,-129,5,132,-69,-62,27,-73,-81,-1,-83,-101
-134,-130,4,132,-69,-63,28,-73,-80,0,-82,-101
-133,-130,3,132,-68,-63,27,-74,-81,-1,-83,-102
-133,-130,3,132,-68,-63,27,-74,-81,-2,-83,-102
-133,-130,3,132,-68,-63,27,-75,-81,-2,-83,-102
-133,-130,3,132,-68,-63,27,-75,-82,-2,-84,-102
-134,-131,3,133,-68,-64,27,-74,-81,-2,-83,-101
-134,-131,3,133,-68,-64,27,-75,-82,-2,-83,-101
-135,-131,4,133,-69,-63,27,-75,-82,-2,-83,-101
-135,-131,4,133,-69,-63,27,-75,-82,-2,-84,-101
-135,-131,4,133,-69,-63,27,-75,-83,-3,-84,-102
-135,-131,4,133,-69,-63,27,-76,-83,-4,-85,-103
-135,-132,3,134,-69,-64,28,-75,-82,-3,-84,-102
-135,-131,4,133,-69,-63,26,-76,-82,-4,-85,-103
-135,-131,4,133,-69,-63,26,-76,-82,-3,-85,-102
-135,-131,4,133,-69,-63,27,-75,-82,-3,-84,-102
-135,-130,5,133,-70,-62,27,-75,-82,-3,-84,-101
-136,-130,6,133,-71,-62,27,-75,-82,-2,-83,-101
-136,-130,6,133,-71,-62,28,-75,-82,-2,-83,-100
-136,-130,6,133,-71,-62,28,-74,-81,-2,-83,-100
-136,-130,6,133,-71,-62,28,-74,-81,-2,-83,-100
-136,-130,6,133,-71,-62,28,-74,-81,-3,-83,-100
-136,-130,6,133,-71,-62,28,-74,-81,-3,-83,-100
-136,-131,5,134,-70,-63,28,-74,-80,-2,-82,-100
-136,-131,5,134,-70,-63,28,-74,-80,-2,-82,-100
-136,-131,5,134,-70,-63,27,-75,-80,-2,-83,-100
-136,-130,6,133,-71,-62,26,-76,-82,-3,-84,-101
-136,-130,6,133,-71,-62,26,-76,-82,-3,-84,-101
-135,-130,5,133,-70,-62,27,-75,-82,-2,-84,-101
-135,-130,5,133,-70,-62,27,-75,-82,-2,-83,-101
-134,-130,4,132,-69,-63,28,-75,-82,-2,-83,-101
-134,-130,4,132,-69,-63,28,-75,-82,-2,-83,-100
-133,-130,3,132,-68,-63,27,-75,-83,-3,-83,-101
-132,-129,3,131,-67,-63,28,-75,-82,-3,-83,-101
-131,-129,2,130,-66,-63,27,-77,-83,-3,-84,-102
-131,-128,3,130,-67,-62,27,-77,-84,-3,-84,-102
-132,-128,4,130,-68,-62,27,-78,-84,-4,-85,-102
-133,-129,4,131,-68,-62,27,-77,-83,-3,-84,-102
-134,-129,5,132,-69,-62,27,-77,-84,-3,-85,-102
-135,-130,5,133,-70,-62,27,-77,-84,-3,-84,-102
-136,-131,5,134,-70,-63,28,-76,-83,-3,-84,-101
-137,-131,6,134,-71,-62,28,-76,-82,-3,-84,-101
-137,-131,6,134,-71,-62,28,-75,-82,-3,-84,-101
-137,-131,6,134,-71,-62,28,-75,-81,-3,-84,-101
-136,-131,5,134,-70,-63,28,-75,-81,-2,-83,-100
-136,-131,5,134,-70,-63,28,-75,-81,-2,-83,-100
-135,-131,4,133,-69,-63,27,-77,-82,-3,-83,-101
-135,-130,5,133,-70,-62,28,-76,-82,-2,-82,-101
-135,-130,5,133,-70,-62,28,-76,-82,-1,-82,-100
-134,-130,4,132,-69,-63,28,-76,-83,-1,-82,-100
-134,-130,4,132,-69,-63,28,-76,-83,-1,-82,-100
-134,-130,4,132,-69,-63,28,-76,-83,-1,-82,-100
-133,-130,3,132,-68,-63,26,-77,-83,-2,-83,-101
-133,-131,2,132,-67,-64,27,-76,-82,-1,-82,-100
-133,-131,2,132,-67,-64,27,-76,-82,-1,-82,-100
-133,-131,2,132,-67,-64,27,-76,-82,-1,-82,-100
-133,-130,3,132,-68,-63,26,-77,-82,-2,-83,-100
-133,-129,4,131,-68,-62,26,-76,-82,-1,-82,-100
-133,-129,4,131,-68,-62,26,-76,-83,-1,-82,-100
-134,-130,4,132,-69,-63,27,-76,-83,-1,-81,-99
-134,-129,5,132,-69,-62,26,-77,-84,-3,-83,-100
-134,-129,5,132,-69,-62,26,-77,-83,-3,-83,-100
-134,-129,5,132,-69,-62,25,-78,-83,-3,-84,-101
-135,-130,5,133,-70,-62,25,-78,-83,-3,-84,-101
-136,-131,5,134,-70,-63,26,-78,-83,-3,-84,-101
-136,-131,5,134,-70,-63,26,-78,-83,-3,-84,-100
-136,-131,5,134,-70,-63,25,-78,-83,-3,-83,-100
-136,-132,4,134,-70,-64,25,-78,-83,-4,-83,-100
-136,-132,4,134,-70,-64,25,-78,-84,-4,-83,-100
-135,-132,3,134,-69,-64,25,-77,-83,-3,-83,-100
-134,-131,3,133,-68,-64,25,-78,-84,-4,-83,-101
-133,-130,3,132,-68,-63,24,-78,-84,-5,-84,-102
-132,-130,2,131,-67,-64,25,-78,-84,-5,-85,-102
-131,-130,1,131,-66,-64,25,-78,-84,-5,-85,-102
-131,-130,1,131,-66,-64,25,-78,-83,-4,-84,-102
-131,-129,2,130,-66,-63,24,-79,-84,-5,-85,-102
-132,-129,3,131,-67,-63,26,-78,-83,-4,-84,-101
-132,-129,3,131,-67,-63,26,-78,-83,-4,-83,-101
-133,-129,4,131,-68,-62,26,-78,-83,-3,-83,-101
-134,-128,6,131,-70,-61,26,-78,-83,-3,-83,-101
-134,-128,6,131,-70,-61,26,-78,-83,-3,-83,-101
-135,-129,6,132,-70,-61,27,-77,-82,-2,-82,-101
-136,-129,7,133,-71,-61,27,-77,-82,-3,-83,-101
-135,-129,6,132,-70,-61,26,-77,-82,-3,-83,-101
-135,-129,6,132,-70,-61,26,-77,-82,-3,-82,-100
-136,-129,7,133,-71,-61,26,-77,-81,-3,-82,-100
-135,-128,7,132,-71,-60,25,-78,-82,-3,-83,-101
-135,-128,7,132,-71,-60,25,-78,-83,-3,-83,-101
-135,-128,7,132,-71,-60,25,-78,-83,-4,-83,-101
-135,-129,6,132,-70,-61,26,-77,-83,-3,-83,-101
-135,-129,6,132,-70,-61,25,-78,-83,-4,-84,-102
-135,-129,6,132,-70,-61,25,-78,-83,-4,-84,-103
-134,-129,5,132,-69,-62,25,-78,-84,-5,-85,-103
-134,-128,6,131,-70,-61,25,-78,-83,-4,-85,-103
-134,-128,6,131,-70,-61,25,-77,-82,-4,-84,-102
-133,-128,5,131,-69,-61,26,-77,-82,-4,-83,-102
-134,-128,6,131,-70,-61,25,-77,-83,-3,-83,-102
-134,-128,6,131,-70,-61,25,-77,-83,-3,-83,-102
-135,-128,7,132,-71,-60,25,-77,-84,-3,-83,-102
-135,-129,6,132,-70,-61,26,-77,-83,-3,-83,-101
-135,-129,6,132,-70,-61,26,-76,-83,-3,-83,-101
-135,-129,6,132,-70,-61,26,-76,-82,-2,-83,-101
-135,-129,6,132,-70,-61,26,-76,-82,-3,-83,-101
-135,-129,6,132,-70,-61,26,-76,-82,-3,-83,-102
-136,-129,7,133,-71,-61,25,-77,-82,-4,-83,-102
-136,-129,7,133,-71,-61,25,-77,-82,-4,-83,-102
-136,-129,7,133,-71,-61,25,-77,-82,-4,-83,-102
-136,-129,7,133,-71,-61,26,-76,-82,-4,-83,-102
-136,-129,7,133,-71,-61,26,-76,-82,-4,-83,-101
-135,-128,7,132,-71,-60,26,-76,-83,-4,-83,-102
-135,-128,7,132,-71,-60,26,-76,-83,-4,-83,-101
-135,-128,7,132,-71,-60,26,-76,-83,-4,-83,-102
-135,-128,7,132,-71,-60,26,-76,-83,-5,-84,-102
-135,-129,6,132,-70,-61,27,-75,-82,-4,-83,-101
-136,-129,7,133,-71,-61,26,-75,-82,-4,-83,-101
-136,-129,7,133,-71,-61,26,-75,-82,-4,-83,-101
-135,-129,6,132,-70,-61,26,-75,-82,-3,-83,-101
-135,-129,6,132,-70,-61,26,-74,-82,-3,-83,-101
-134,-129,5,132,-69,-62,25,-75,-83,-4,-83,-101
-134,-129,5,132,-69,-62,25,-74,-83,-3,-83,-101
-134,-129,5,132,-69,-62,25,-74,-83,-4,-83,-101
-135,-129,6,132,-70,-61,25,-74,-83,-3,-82,-101
-135,-129,6,132,-70,-61,25,-74,-83,-4,-83,-101
-136,-129,7,133,-71,-61,25,-75,-83,-4,-83,-102
-136,-130,6,133,-71,-62,24,-75,-83,-4,-83,-102
-136,-130,6,133,-71,-62,24,-75,-83,-4,-83,-102
-136,-129,7,133,-71,-61,25,-75,-82,-4,-82,-101
-135,-129,6,132,-70,-61,25,-74,-82,-3,-82,-101
-135,-128,7,132,-71,-60,24,-75,-83,-4,-83,-101
-135,-128,7,132,-71,-60,25,-75,-83,-4,-83,-101
-135,-128,7,132,-71,-60,25,-75,-83,-4,-83,-102
-136,-128,8,132,-72,-60,26,-74,-83,-4,-83,-101
-136,-128,8,132,-72,-60,26,-74,-83,-4,-84,-102
-136,-128,8,132,-72,-60,26,-75,-83,-4,-84,-102
-136,-128,8,132,-72,-60,26,-75,-83,-4,-84,-102
-136,-129,7,133,-71,-61,25,-75,-83,-4,-84,-102
-135,-129,6,132,-70,-61,26,-75,-83,-4,-83,-101
-135,-128,7,132,-71,-60,25,-76,-83,-5,-84,-102
-135,-128,7,132,-71,-60,24,-76,-83,-5,-83,-102
-135,-128,7,132,-71,-60,25,-76,-83,-4,-83,-102
-134,-128,6,131,-70,-61,25,-75,-83,-4,-83,-101
-134,-127,7,131,-70,-60,26,-75,-82,-3,-83,-101
-134,-127,7,131,-70,-60,26,-74,-81,-3,-82,-100
-133,-126,7,130,-70,-59,26,-75,-82,-3,-83,-101
-133,-125,8,129,-70,-58,26,-75,-81,-2,-82,-100
-133,-125,8,129,-70,-58,26,-74,-81,-2,-82,-100
-134,-125,9,130,-71,-58,26,-74,-81,-2,-82,-100
-134,-125,9,130,-71,-58,26,-75,-82,-2,-82,-100
-135,-126,9,131,-72,-58,26,-74,-81,-1,-81,-99
-136,-127,9,132,-72,-59,26,-75,-82,-2,-82,-100
-136,-127,9,132,-72,-59,25,-75,-83,-3,-83,-101
-136,-128,8,132,-72,-60,26,-75,-82,-2,-83,-100
-136,-128,8,132,-72,-60,26,-75,-82,-3,-83,-101
-137,-129,8,133,-72,-60,25,-76,-82,-3,-83,-101
-137,-130,7,134,-72,-61,25,-75,-82,-3,-83,-101
-137,-130,7,134,-72,-61,25,-76,-82,-4,-83,-102
-137,-130,7,134,-72,-61,25,-76,-82,-3,-83,-101
-137,-130,7,134,-72,-61,25,-76,-82,-3,-82,-101
-137,-129,8,133,-72,-60,25,-76,-83,-4,-83,-101
-136,-128,8,132,-72,-60,26,-76,-83,-3,-82,-100
-135,-126,9,131,-72,-58,26,-75,-82,-2,-82,-100
-134,-124,10,129,-72,-57,26,-75,-82,-2,-82,-99
-133,-123,10,128,-71,-56,26,-75,-82,-2,-82,-100
-132,-122,10,127,-71,-56,26,-75,-81,-2,-82,-100
-131,-120,11,126,-71,-54,26,-75,-81,-1,-82,-100
-130,-119,11,125,-70,-54,26,-74,-79,0,-81,-98
-130,-118,12,124,-71,-53,26,-74,-79,0,-81,-99
-130,-118,12,124,-71,-53,27,-72,-78,0,-80,-98
-130,-118,12,124,-71,-53,28,-71,-78,1,-80,-98
-131,-118,13,125,-72,-52,29,-69,-77,2,-79,-97
-131,-119,12,125,-71,-53,30,-69,-77,2,-79,-97
-132,-119,13,126,-72,-53,30,-69,-77,2,-79,-98
-132,-120,12,126,-72,-54,31,-69,-76,3,-79,-97
-132,-121,11,127,-71,-55,31,-69,-76,2,-79,-98
-132,-121,11,127,-71,-55,31,-69,-75,2,-79,-98
-132,-121,11,127,-71,-55,32,-68,-75,3,-79,-97
-131,-121,10,126,-70,-55,33,-67,-74,3,-78,-97
-130,-121,9,126,-69,-56,33,-67,-74,3,-79,-98
-130,-119,11,125,-70,-54,35,-65,-72,5,-77,-97
-129,-118,11,124,-70,-53,36,-64,-71,6,-77,-96
-127,-116,11,122,-69,-52,37,-62,-69,7,-76,-95
-126,-114,12,120,-69,-51,38,-61,-67,8,-75,-95
-125,-113,12,119,-68,-50,39,-60,-66,8,-74,-94
-125,-111,14,118,-69,-48,39,-60,-65,9,-74,-94
-124,-111,13,118,-68,-49,39,-59,-65,9,-74,-93
-124,-111,13,118,-68,-49,37,-60,-66,9,-74,-93
-125,-112,13,119,-69,-49,37,-61,-66,10,-73,-92
-125,-113,12,119,-68,-50,34,-63,-67,9,-74,-93
-126,-115,11,121,-68,-52,32,-65,-69,8,-74,-93
-126,-117,9,122,-67,-54,30,-67,-71,7,-75,-94
-126,-119,7,123,-66,-56,28,-69,-73,5,-76,-95
-126,-121,5,124,-65,-58,27,-70,-74,5,-77,-95
-125,-123,2,124,-63,-60,26,-72,-76,3,-78,-96
-125,-125,0,125,-62,-62,25,-73,-77,2,-78,-96
-124,-125,-1,125,-61,-63,24,-74,-78,1,-79,-97
-124,-126,-2,125,-61,-64,23,-75,-80,1,-79,-97
-124,-126,-2,125,-61,-64,21,-77,-81,0,-80,-97
-125,-127,-2,126,-61,-64,21,-77,-82,0,-80,-97
-126,-127,-1,127,-62,-64,21,-78,-83,-1,-81,-98
-127,-128,-1,128,-63,-64,22,-77,-83,0,-80,-97
-128,-128,0,128,-64,-64,22,-78,-84,-1,-81,-98
-129,-129,0,129,-64,-64,23,-78,-84,-1,-81,-99
-130,-130,0,130,-65,-65,22,-78,-85,-3,-83,-100
-131,-130,1,131,-66,-64,24,-77,-84,-3,-83,-100
-133,-131,2,132,-67,-64,25,-77,-84,-3,-83,-101
-134,-131,3,133,-68,-64,25,-77,-85,-4,-85,-102
-135,-132,3,134,-69,-64,25,-77,-85,-5,-85,-102
-137,-133,4,135,-70,-64,26,-77,-85,-5,-85,-102
-138,-133,5,136,-71,-64,26,-77,-86,-5,-86,-103
-139,-134,5,137,-72,-64,26,-77,-86,-5,-85,-103
-139,-134,5,137,-72,-64,25,-79,-86,-6,-86,-103
-140,-135,5,138,-72,-65,24,-80,-87,-6,-86,-104
-140,-135,5,138,-72,-65,24,-80,-87,-7,-86,-104
-140,-135,5,138,-72,-65,23,-80,-86,-7,-86,-104
-140,-135,5,138,-72,-65,23,-80,-86,-7,-86,-104
-139,-135,4,137,-71,-65,23,-80,-86,-7,-86,-104
-138,-135,3,137,-70,-66,23,-80,-86,-6,-85,-103
-138,-134,4,136,-71,-65,22,-80,-87,-7,-86,-104
-137,-134,3,136,-70,-65,23,-80,-87,-6,-85,-104
-137,-133,4,135,-70,-64,23,-80,-86,-6,-85,-103
-136,-132,4,134,-70,-64,23,-80,-87,-6,-85,-103
-136,-132,4,134,-70,-64,23,-79,-86,-5,-85,-102
-136,-131,5,134,-70,-63,24,-79,-85,-4,-84,-102
-135,-130,5,133,-70,-62,23,-79,-85,-5,-84,-103
-136,-130,6,133,-71,-62,22,-79,-85,-5,-85,-104
-136,-130,6,133,-71,-62,22,-80,-85,-5,-85,-104
-137,-130,7,134,-72,-61,22,-79,-84,-4,-84,-104
-137,-131,6,134,-71,-62,22,-79,-84,-5,-85,-105
-138,-131,7,135,-72,-62,22,-79,-85,-5,-85,-105
-138,-131,7,135,-72,-62,21,-79,-85,-5,-85,-105
-138,-131,7,135,-72,-62,22,-79,-84,-5,-85,-104
-137,-130,7,134,-72,-61,22,-79,-84,-4,-84,-103
-137,-130,7,134,-72,-61,22,-79,-83,-4,-84,-103
-137,-130,7,134,-72,-61,22,-79,-83,-3,-84,-103
-137,-130,7,134,-72,-61,22,-78,-82,-3,-83,-102
-137,-130,7,134,-72,-61,23,-77,-81,-2,-83,-102
-137,-130,7,134,-72,-61,24,-75,-81,-2,-83,-102
-137,-130,7,134,-72,-61,26,-72,-80,-3,-84,-103
-137,-131,6,134,-71,-62,27,-69,-80,-4,-86,-105
-138,-133,5,136,-71,-64,31,-64,-78,-5,-88,-107
-139,-135,4,137,-71,-65,36,-59,-76,-7,-90,-109
-140,-137,3,139,-71,-67,41,-52,-73,-9,-93,-112
-140,-140,0,140,-70,-70,46,-44,-70,-11,-96,-115
-140,-141,-1,141,-69,-71,51,-36,-65,-12,-98,-117
-139,-140,-1,140,-69,-70,57,-26,-56,-11,-98,-117
-136,-136,0,136,-68,-68,62,-16,-48,-9,-98,-117
-133,-131,2,132,-67,-64,68,0,-34,-2,-93,-113
-128,-122,6,125,-67,-58,73,17,-17,7,-86,-108
"
		-121","
		-112","
		9","
		117","
		-65","
		-51","
		78","
		37","
		4","
		22","
		-76","
		-101"
-113,-99,14,106,-63,-42,83,58,30,41,-62,-90
-104,-85,19,95,-61,-33,89,79,59,66,-45,-77
-96,-69,27,83,-61,-21,92,94,90,95,-23,-60
-88,-49,39,69,-63,-5,92,100,118,128,1,-41
-82,-27,55,55,-68,14,88,93,141,165,30,-18
-77,-3,74,40,-75,36,78,65,150,205,61,7
-74,23,97,26,-85,60,61,14,143,246,94,33
-74,49,123,13,-98,86,36,-59,121,288,127,60
-76,75,151,1,-113,113,1,-149,90,331,161,87
-79,99,178,-10,-128,139,-39,-246,55,376,194,113
-83,114,197,-15,-140,156,-80,-339,21,414,218,131
-89,114,203,-12,-146,159,-115,-413,-6,440,230,137
-95,99,194,-2,-144,147,-142,-465,-28,451,227,131
-101,75,176,13,-138,126,-162,-496,-47,443,210,114
-107,43,150,32,-128,97,-172,-504,-64,419,182,90
-113,6,119,54,-116,63,-179,-496,-86,373,141,57
-121,-32,89,77,-105,29,-183,-479,-115,310,96,22
-129,-61,68,95,-98,4,-189,-463,-154,234,49,-11
-138,-83,55,111,-96,-14,-190,-444,-192,157,6,-40
-145,-100,45,123,-95,-27,-188,-416,-221,85,-32,-65
-150,-113,37,132,-93,-38,-181,-384,-238,27,-62,-86
-152,-121,31,137,-91,-45,-169,-349,-245,-14,-83,-101
-153,-126,27,140,-90,-49,-150,-313,-239,-37,-96,-111
-152,-127,25,140,-88,-51,-128,-275,-218,-41,-100,-116
-148,-124,24,136,-86,-50,-111,-240,-192,-32,-98,-116
-144,-120,24,132,-84,-48,-94,-208,-164,-16,-90,-112
-141,-116,25,129,-83,-45,-78,-181,-140,-2,-83,-108
-138,-112,26,125,-82,-43,-59,-156,-118,10,-77,-104
-135,-108,27,122,-81,-40,-43,-136,-100,19,-71,-99
-133,-105,28,119,-80,-38,-31,-119,-85,26,-67,-96
-131,-104,27,118,-79,-38,-19,-104,-71,31,-63,-93
-129,-103,26,116,-77,-38,-8,-90,-61,35,-60,-92
-128,-103,25,116,-76,-39,2,-79,-53,37,-59,-91
-128,-104,24,116,-76,-40,8,-71,-48,38,-59,-91
-127,-105,22,116,-74,-41,13,-65,-45,38,-59,-91
-127,-106,21,117,-74,-42,18,-59,-43,38,-59,-92
-126,-107,19,117,-72,-44,21,-55,-42,37,-60,-93
-126,-108,18,117,-72,-45,24,-51,-41,36,-61,-94
-126,-109,17,118,-71,-46,26,-48,-39,35,-62,-96
-126,-110,16,118,-71,-47,28,-47,-38,33,-63,-97
-126,-110,16,118,-71,-47,29,-46,-37,32,-63,-98
-126,-110,16,118,-71,-47,31,-44,-36,32,-64,-98
-126,-109,17,118,-71,-46,32,-42,-34,32,-63,-98
-126,-109,17,118,-71,-46,32,-41,-34,33,-63,-97
-126,-109,17,118,-71,-46,32,-40,-33,33,-63,-98
-126,-109,17,118,-71,-46,32,-39,-34,33,-63,-98
-126,-110,16,118,-71,-47,33,-37,-33,33,-63,-99
-126,-111,15,119,-70,-48,34,-35,-31,34,-63,-99
-126,-111,15,119,-70,-48,35,-34,-30,33,-63,-99
-125,-112,13,119,-69,-49,36,-33,-29,33,-63,-100
-125,-112,13,119,-69,-49,36,-32,-28,33,-63,-100
-125,-112,13,119,-69,-49,37,-31,-26,33,-63,-100
-125,-112,13,119,-69,-49,37,-30,-25,35,-62,-100
-125,-112,13,119,-69,-49,37,-30,-25,36,-62,-99
-125,-112,13,119,-69,-49,37,-29,-25,36,-61,-99
-126,-112,14,119,-70,-49,37,-29,-24,37,-61,-99
-126,-112,14,119,-70,-49,37,-27,-24,38,-61,-99
-126,-112,14,119,-70,-49,38,-26,-23,38,-60,-99
-125,-112,13,119,-69,-49,40,-24,-21,38,-60,-99
-124,-112,12,118,-68,-50,40,-24,-20,38,-61,-100
-123,-110,13,117,-68,-48,40,-23,-18,38,-61,-101
-122,-109,13,116,-67,-48,41,-21,-16,40,-59,-99
-121,-108,13,115,-67,-47,41,-21,-15,41,-58,-99
-121,-106,15,114,-68,-45,41,-21,-14,43,-58,-98
-121,-106,15,114,-68,-45,41,-20,-13,44,-56,-97
-122,-105,17,114,-69,-44,41,-19,-13,45,-56,-97
-123,-106,17,115,-70,-44,42,-17,-12,46,-55,-96
-123,-106,17,115,-70,-44,42,-17,-12,47,-56,-97
-123,-107,16,115,-69,-45,42,-16,-11,46,-57,-98
-123,-107,16,115,-69,-45,41,-16,-10,46,-58,-100
-123,-107,16,115,-69,-45,42,-16,-9,46,-58,-100
-122,-107,15,115,-68,-46,43,-15,-7,47,-57,-100
-121,-105,16,113,-68,-44,42,-14,-6,48,-56,-100
-120,-104,16,112,-68,-44,42,-14,-5,48,-55,-100
-119,-103,16,111,-67,-43,43,-12,-4,51,-54,-99
-118,-102,16,110,-67,-43,42,-12,-4,51,-53,-99
-118,-102,16,110,-67,-43,42,-11,-3,52,-53,-99
-118,-103,15,111,-66,-44,42,-10,-2,52,-52,-100
-118,-103,15,111,-66,-44,42,-10,-1,52,-53,-101
-119,-104,15,112,-67,-44,43,-9,0,53,-52,-101
-120,-105,15,113,-67,-45,43,-8,2,54,-52,-101
-120,-105,15,113,-67,-45,43,-8,3,54,-51,-101
-120,-104,16,112,-68,-44,43,-8,4,55,-51,-102
-120,-104,16,112,-68,-44,42,-7,4,56,-50,-101
-119,-103,16,111,-67,-43,42,-5,5,58,-49,-100
-118,-102,16,110,-67,-43,42,-4,6,59,-48,-100
-117,-102,15,110,-66,-43,43,-1,8,62,-46,-99
-116,-101,15,109,-65,-43,43,0,9,62,-46,-100
-115,-101,14,108,-64,-43,44,2,12,64,-45,-100
-115,-101,14,108,-64,-43,45,3,14,65,-44,-99
-114,-100,14,107,-64,-43,44,3,15,65,-45,-100
-114,-99,15,107,-64,-42,44,5,18,67,-44,-99
-113,-98,15,106,-64,-41,43,5,18,67,-44,-100
-113,-97,16,105,-64,-40,43,7,20,70,-42,-99
-112,-96,16,104,-64,-40,42,8,20,71,-41,-99
-111,-95,16,103,-63,-39,42,9,21,71,-41,-99
-110,-95,15,103,-62,-40,43,11,23,73,-40,-99
-110,-94,16,102,-63,-39,43,14,25,75,-39,-98
-109,-94,15,102,-62,-39,43,15,26,76,-40,-99
-108,-93,15,101,-61,-39,44,17,29,77,-39,-99
-108,-93,15,101,-61,-39,44,18,32,79,-38,-98
-108,-93,15,101,-61,-39,44,20,34,81,-38,-97
-108,-93,15,101,-61,-39,43,21,36,83,-37,-95
-107,-92,15,100,-61,-38,42,22,37,84,-36,-94
-108,-92,16,100,-62,-38,42,24,39,87,-35,-93
-108,-91,17,100,-62,-37,42,26,40,89,-33,-91
-108,-90,18,99,-63,-36,43,29,42,92,-31,-90
-106,-89,17,98,-61,-36,43,32,45,94,-30,-89
-105,-87,18,96,-61,-34,43,34,48,96,-30,-88
-104,-86,18,95,-61,-34,43,36,50,97,-30,-88
-103,-85,18,94,-60,-33,43,38,53,99,-29,-87
-102,-84,18,93,-60,-33,44,41,57,103,-26,-85
-101,-83,18,92,-59,-32,43,42,59,105,-25,-83
-101,-83,18,92,-59,-32,42,45,62,108,-23,-81
-101,-83,18,92,-59,-32,42,48,65,112,-21,-79
-99,-82,17,91,-58,-32,42,51,68,115,-19,-77
-98,-81,17,90,-57,-32,42,55,71,119,-16,-75
-96,-80,16,88,-56,-32,42,58,74,122,-15,-73
-95,-79,16,87,-55,-31,43,62,78,126,-12,-71
-92,-77,15,85,-53,-31,42,64,82,129,-11,-70
-90,-75,15,83,-52,-30,43,68,86,133,-9,-68
-89,-73,16,81,-52,-28,43,71,90,137,-7,-66
-88,-72,16,80,-52,-28,42,74,94,141,-5,-65
-88,-70,18,79,-53,-26,42,77,98,145,-2,-63
-87,-68,19,78,-53,-24,41,81,101,151,1,-61
-86,-66,20,76,-53,-23,41,85,105,155,4,-59
-86,-65,21,76,-53,-22,42,89,109,161,8,-57
-86,-64,22,75,-54,-21,42,94,114,167,11,-54
-84,-63,21,74,-52,-21,42,97,119,171,14,-53
-83,-62,21,73,-52,-20,42,100,123,176,17,-51
-81,-60,21,71,-51,-19,41,104,128,182,20,-48
-80,-57,23,69,-51,-17,40,106,133,187,23,-47
-78,-54,24,66,-51,-15,40,110,138,193,27,-43
-76,-52,24,64,-50,-14,39,112,142,199,31,-40
-74,-48,26,61,-50,-11,37,115,145,205,35,-38
-73,-45,28,59,-50,-8,37,119,150,211,39,-35
-71,-43,28,57,-49,-7,37,122,154,217,43,-32
-69,-41,28,55,-48,-6,36,124,157,222,45,-30
-68,-38,30,53,-49,-4,36,126,162,228,48,-28
-66,-36,30,51,-48,-3,35,129,167,234,52,-25
-64,-34,30,49,-47,-2,34,131,171,240,55,-23
-62,-32,30,47,-46,-1,34,133,176,247,60,-20
-59,-29,30,44,-44,1,33,134,180,253,64,-17
-58,-26,32,42,-45,3,32,136,184,260,69,-13
-56,-24,32,40,-44,4,30,137,186,266,73,-10
-55,-21,34,38,-44,7,29,139,190,273,78,-7
-53,-19,34,36,-43,8,28,140,192,278,82,-4
-52,-18,34,35,-43,8,27,141,195,284,85,-1
-51,-16,35,34,-43,10,26,141,198,288,88,1
-51,-15,36,33,-43,11,26,142,201,293,91,3
-51,-14,37,33,-44,12,24,140,203,296,93,5
-50,-12,38,31,-44,13,23,139,204,299,95,6
-50,-10,40,30,-45,15,22,137,205,303,98,9
-50,-9,41,30,-45,16,20,135,205,306,99,10
-50,-7,43,29,-46,18,20,133,204,308,101,12
-49,-5,44,27,-46,20,19,130,203,309,102,14
-48,-3,45,26,-46,21,18,127,201,309,103,15
-48,-2,46,25,-47,22,17,122,198,307,102,15
-49,-2,47,26,-48,23,18,118,195,305,102,16
-51,-2,49,27,-50,24,17,112,190,301,100,15
-52,-3,49,28,-50,23,17,106,186,296,98,15
-54,-3,51,29,-52,24,17,100,181,290,96,15
-57,-5,52,31,-54,24,16,93,174,283,93,13
-59,-6,53,33,-56,24,15,86,166,275,88,11
-63,-9,54,36,-58,23,16,81,158,268,85,10
-65,-11,54,38,-59,22,16,73,149,257,79,6
-68,-14,54,41,-61,20,16,67,140,247,73,3
-71,-18,53,45,-62,18,17,60,130,236,67,-2
-75,-22,53,49,-64,16,18,53,121,225,60,-6
-77,-26,51,52,-64,13,19,46,112,213,53,-11
-79,-30,49,55,-64,10,19,39,102,201,47,-16
-82,-35,47,59,-64,6,20,32,93,189,40,-20
-86,-40,46,63,-66,3,20,25,83,178,33,-24
-89,-45,44,67,-66,0,19,17,73,167,27,-29
-92,-49,43,71,-67,-3,20,11,63,157,21,-33
-95,-54,41,75,-68,-6,19,5,53,146,15,-37
-98,-59,39,79,-68,-10,21,1,45,136,9,-41
-99,-63,36,81,-67,-13,22,-4,37,127,3,-45
-101,-67,34,84,-67,-16,23,-8,30,117,-2,-49
-103,-71,32,87,-67,-19,24,-13,23,108,-8,-53
-105,-75,30,90,-67,-22,25,-17,17,100,-13,-56
-107,-79,28,93,-67,-25,26,-21,11,92,-19,-60
-109,-83,26,96,-67,-28,26,-25,5,86,-23,-63
-111,-86,25,99,-68,-30,25,-29,-2,78,-28,-67
-112,-89,23,101,-67,-33,26,-32,-7,73,-31,-69
-114,-91,23,103,-68,-34,27,-35,-13,68,-35,-72
-116,-94,22,105,-69,-36,28,-37,-17,63,-38,-74
-117,-97,20,107,-68,-38,28,-39,-21,58,-41,-77
-118,-99,19,109,-68,-40,28,-41,-24,53,-45,-79
-118,-101,17,110,-67,-42,28,-43,-28,50,-48,-81
-120,-104,16,112,-68,-44,28,-45,-30,46,-50,-83
-121,-106,15,114,-68,-45,28,-47,-32,43,-53,-85
-121,-107,14,114,-67,-46,29,-48,-34,41,-54,-85
-121,-108,13,115,-67,-47,29,-49,-37,39,-55,-87
-121,-109,12,115,-66,-48,29,-50,-39,37,-56,-88
-121,-110,11,116,-66,-49,30,-50,-41,36,-57,-88
-121,-111,10,116,-65,-50,30,-51,-43,33,-58,-89
-121,-112,9,117,-65,-51,30,-52,-45,31,-59,-90
-120,-113,7,117,-63,-53,30,-53,-46,29,-61,-92
-120,-114,6,117,-63,-54,31,-52,-46,28,-62,-92
-120,-115,5,118,-62,-55,30,-53,-47,26,-63,-94
-121,-116,5,119,-63,-55,31,-53,-47,26,-63,-94
-122,-117,5,120,-63,-56,30,-53,-48,25,-64,-94
-123,-117,6,120,-64,-55,31,-52,-47,26,-63,-94
-124,-118,6,121,-65,-56,31,-52,-47,26,-64,-94
-125,-118,7,122,-66,-55,32,-51,-47,27,-63,-93
-125,-118,7,122,-66,-55,32,-51,-47,27,-64,-94
-126,-119,7,123,-66,-56,32,-51,-48,26,-65,-94
-126,-119,7,123,-66,-56,32,-51,-48,26,-66,-95
-126,-120,6,123,-66,-57,33,-51,-48,26,-65,-94
-127,-120,7,124,-67,-56,32,-52,-48,25,-65,-94
-127,-120,7,124,-67,-56,32,-52,-49,24,-65,-94
-127,-120,7,124,-67,-56,31,-52,-49,24,-65,-93
-127,-120,7,124,-67,-56,31,-52,-49,25,-64,-93
-127,-119,8,123,-67,-55,30,-52,-50,25,-64,-93
-128,-119,9,124,-68,-55,30,-52,-50,25,-64,-92
-128,-119,9,124,-68,-55,30,-52,-51,25,-65,-92
-129,-120,9,125,-69,-55,31,-51,-50,25,-64,-92
-129,-120,9,125,-69,-55,31,-51,-50,25,-65,-92
-128,-120,8,124,-68,-56,31,-51,-50,24,-65,-93
-127,-120,7,124,-67,-56,32,-50,-49,25,-65,-92
-126,-120,6,123,-66,-57,32,-49,-48,26,-64,-92
-125,-119,6,122,-65,-56,32,-50,-48,25,-64,-92
-124,-119,5,122,-64,-57,31,-49,-48,26,-63,-91
-124,-119,5,122,-64,-57,31,-49,-48,26,-62,-91
-125,-119,6,122,-65,-56,30,-49,-49,26,-63,-91
-125,-119,6,122,-65,-56,30,-50,-50,25,-63,-92
-125,-120,5,123,-65,-57,29,-50,-51,24,-64,-93
-126,-120,6,123,-66,-57,30,-49,-50,25,-63,-92
-125,-119,6,122,-65,-56,29,-51,-51,23,-64,-93
-125,-119,6,122,-65,-56,30,-51,-51,23,-64,-92
-125,-118,7,122,-66,-55,30,-50,-50,23,-64,-92
-125,-117,8,121,-66,-54,28,-52,-51,23,-65,-93
-126,-117,9,122,-67,-54,29,-51,-51,24,-64,-92
-126,-117,9,122,-67,-54,29,-51,-51,24,-64,-92
-125,-117,8,121,-66,-54,28,-52,-53,23,-65,-94
-125,-117,8,121,-66,-54,28,-52,-53,23,-64,-94
-125,-117,8,121,-66,-54,28,-52,-53,23,-64,-94
-124,-119,5,122,-64,-57,30,-50,-52,23,-63,-93
-124,-121,3,123,-63,-59,30,-51,-52,23,-64,-93
-124,-124,0,124,-62,-62,31,-50,-52,23,-64,-92
-125,-127,-2,126,-61,-64,32,-49,-50,24,-63,-91
-125,-128,-3,127,-61,-65,32,-49,-50,24,-63,-91
-125,-128,-3,127,-61,-65,31,-49,-50,24,-63,-91
-125,-126,-1,126,-62,-63,30,-50,-52,23,-64,-92
-125,-123,2,124,-63,-60,29,-51,-53,22,-64,-93
-125,-120,5,123,-65,-57,29,-52,-54,21,-65,-93
-125,-116,9,121,-67,-53,28,-53,-55,20,-66,-94
-124,-114,10,119,-67,-52,27,-54,-56,19,-67,-95
-123,-112,11,118,-67,-50,26,-55,-57,17,-68,-96
-123,-111,12,117,-67,-49,27,-56,-57,17,-68,-95
-123,-112,11,118,-67,-50,27,-56,-57,16,-68,-95
-122,-113,9,118,-65,-52,26,-57,-58,15,-68,-95
-122,-114,8,118,-65,-53,25,-57,-59,15,-68,-94
-122,-114,8,118,-65,-53,25,-58,-59,15,-68,-94
-123,-115,8,119,-65,-53,26,-57,-59,16,-68,-94
-124,-117,7,121,-65,-55,26,-56,-59,16,-67,-93
-124,-119,5,122,-64,-57,28,-55,-58,17,-67,-93
-124,-121,3,123,-63,-59,28,-55,-57,17,-66,-92
-125,-123,2,124,-63,-60,30,-54,-56,18,-65,-91
-125,-126,-1,126,-62,-63,31,-53,-55,19,-65,-91
-126,-128,-2,127,-62,-65,32,-53,-54,19,-64,-89
-126,-127,-1,127,-62,-64,31,-53,-55,19,-64,-89
-126,-124,2,125,-64,-61,30,-54,-56,18,-65,-89
-127,-121,6,124,-66,-57,29,-56,-58,17,-66,-91
-127,-118,9,123,-68,-54,27,-58,-60,15,-67,-92
-127,-114,13,121,-70,-50,26,-59,-62,14,-69,-93
-126,-111,15,119,-70,-48,26,-60,-63,13,-70,-94
-126,-111,15,119,-70,-48,26,-60,-63,12,-70,-94
-126,-112,14,119,-70,-49,26,-61,-64,11,-71,-95
-126,-113,13,120,-69,-50,25,-61,-64,11,-72,-96
-126,-113,13,120,-69,-50,25,-62,-65,10,-72,-96
-126,-114,12,120,-69,-51,26,-61,-64,11,-71,-95
-126,-115,11,121,-68,-52,25,-62,-65,11,-71,-95
-127,-117,10,122,-68,-53,26,-61,-65,12,-70,-94
-126,-118,8,122,-67,-55,26,-61,-65,12,-69,-93
-126,-121,5,124,-65,-58,27,-60,-64,13,-68,-91
-126,-123,3,125,-64,-60,28,-60,-64,14,-68,-91
-126,-125,1,126,-63,-62,28,-60,-64,13,-69,-92
-126,-125,1,126,-63,-62,27,-60,-65,12,-69,-92
-126,-123,3,125,-64,-60,27,-61,-65,12,-70,-93
-125,-120,5,123,-65,-57,25,-63,-67,9,-73,-95
-125,-118,7,122,-66,-55,25,-64,-68,9,-73,-95
-125,-116,9,121,-67,-53,24,-65,-69,8,-74,-96
-124,-114,10,119,-67,-52,23,-66,-70,7,-75,-97
-124,-114,10,119,-67,-52,22,-66,-71,7,-75,-97
-124,-115,9,120,-66,-53,22,-66,-71,7,-75,-96
-124,-116,8,120,-66,-54,24,-65,-70,8,-74,-95
-124,-117,7,121,-65,-55,24,-66,-71,7,-74,-95
-124,-118,6,121,-65,-56,24,-66,-71,7,-74,-95
-124,-119,5,122,-64,-57,24,-65,-70,8,-74,-95
-125,-121,4,123,-64,-58,25,-65,-69,8,-73,-95
-125,-124,1,125,-63,-61,25,-64,-69,9,-73,-94
-125,-126,-1,126,-62,-63,24,-65,-70,8,-73,-94
-124,-128,-4,126,-60,-66,24,-64,-69,9,-72,-93
-125,-129,-4,127,-60,-66,24,-64,-70,9,-72,-93
-125,-128,-3,127,-61,-65,24,-64,-70,8,-72,-93
-125,-125,0,125,-62,-62,23,-65,-72,7,-73,-94
-125,-123,2,124,-63,-60,23,-66,-73,6,-75,-95
"
		-125","
		-120","
		5","
		123","
		-65","
		-57","
		22","
		-67","
		-74","
		4","
		-76","
		-96"
-126,-119,7,123,-66,-56,22,-68,-74,4,-77,-96
-127,-119,8,123,-67,-55,22,-68,-73,4,-76,-96
-127,-119,8,123,-67,-55,22,-68,-74,4,-76,-96
-127,-121,6,124,-66,-57,22,-68,-74,5,-76,-95
-127,-122,5,125,-66,-58,23,-67,-73,7,-75,-94
-127,-124,3,126,-65,-60,23,-66,-73,7,-75,-94
-126,-126,0,126,-63,-63,24,-65,-72,8,-74,-93
-126,-128,-2,127,-62,-65,24,-65,-72,9,-74,-93
-126,-130,-4,128,-61,-67,25,-63,-71,9,-73,-92
-126,-132,-6,129,-60,-69,26,-63,-70,10,-72,-92
-126,-135,-9,131,-58,-72,26,-62,-70,10,-71,-91
-126,-136,-10,131,-58,-73,26,-63,-70,10,-71,-90
-126,-135,-9,131,-58,-72,26,-63,-70,10,-71,-90
-126,-133,-7,130,-59,-70,24,-65,-72,9,-72,-91
-126,-129,-3,128,-61,-66,24,-66,-73,8,-73,-91
-125,-124,1,125,-63,-61,22,-67,-74,7,-74,-92
-125,-120,5,123,-65,-57,21,-69,-76,5,-76,-94
-125,-117,8,121,-66,-54,20,-69,-77,4,-77,-95
-124,-116,8,120,-66,-54,20,-69,-77,4,-77,-95
-124,-116,8,120,-66,-54,21,-68,-77,4,-77,-95
-124,-118,6,121,-65,-56,21,-69,-77,4,-77,-95
-124,-120,4,122,-64,-58,21,-69,-76,4,-77,-95
-124,-123,1,124,-62,-61,22,-68,-75,5,-77,-94
-125,-124,1,125,-63,-61,22,-67,-75,5,-76,-94
-126,-125,1,126,-63,-62,21,-68,-76,5,-76,-94
-128,-125,3,127,-65,-61,22,-67,-76,5,-75,-94
-129,-124,5,127,-67,-59,22,-67,-76,5,-76,-94
-129,-123,6,126,-67,-58,22,-67,-76,5,-76,-94
-130,-122,8,126,-69,-57,23,-66,-75,6,-75,-93
-129,-121,8,125,-68,-56,22,-67,-76,5,-76,-93
-128,-120,8,124,-68,-56,22,-67,-76,5,-76,-93
-128,-120,8,124,-68,-56,22,-67,-75,5,-76,-93
-127,-121,6,124,-66,-57,22,-68,-75,5,-76,-92
-127,-121,6,124,-66,-57,22,-67,-75,5,-76,-92
-126,-121,5,124,-65,-58,22,-67,-75,5,-76,-92
-126,-121,5,124,-65,-58,22,-67,-76,5,-76,-92
-126,-121,5,124,-65,-58,22,-67,-76,5,-76,-92
-126,-121,5,124,-65,-58,22,-67,-76,5,-76,-93
-126,-122,4,124,-65,-59,22,-66,-76,4,-76,-93
-125,-122,3,124,-64,-59,22,-67,-76,4,-77,-93
-126,-122,4,124,-65,-59,22,-68,-76,3,-77,-94
-126,-123,3,125,-64,-60,23,-68,-76,4,-77,-93
-127,-123,4,125,-65,-59,22,-69,-77,3,-78,-94
-127,-123,4,125,-65,-59,22,-69,-77,3,-78,-95
-127,-123,4,125,-65,-59,22,-69,-77,3,-77,-95
-126,-122,4,124,-65,-59,21,-70,-79,3,-78,-95
-126,-122,4,124,-65,-59,21,-70,-79,3,-79,-96
-126,-122,4,124,-65,-59,21,-70,-79,3,-78,-96
-126,-123,3,125,-64,-60,22,-69,-77,4,-77,-95
-126,-123,3,125,-64,-60,22,-69,-77,4,-77,-95
-127,-124,3,126,-65,-60,21,-69,-78,3,-78,-95
-127,-125,2,126,-64,-61,22,-69,-77,4,-77,-94
-127,-126,1,127,-64,-62,22,-69,-77,4,-76,-93
-126,-126,0,126,-63,-63,22,-69,-77,5,-76,-92
-126,-126,0,126,-63,-63,22,-68,-76,5,-75,-91
-125,-125,0,125,-62,-62,21,-69,-77,5,-76,-92
-125,-125,0,125,-62,-62,21,-69,-77,5,-76,-91
-126,-125,1,126,-63,-62,21,-69,-78,4,-76,-92
-126,-124,2,125,-64,-61,22,-69,-78,4,-76,-93
-126,-124,2,125,-64,-61,23,-69,-77,4,-76,-93
-126,-123,3,125,-64,-60,23,-69,-77,4,-76,-92
-125,-122,3,124,-64,-59,23,-69,-77,3,-77,-93
-125,-121,4,123,-64,-58,23,-69,-77,4,-76,-93
-125,-121,4,123,-64,-58,23,-69,-76,5,-76,-92
-124,-120,4,122,-64,-58,22,-69,-77,4,-77,-92
-125,-120,5,123,-65,-57,22,-69,-77,4,-76,-92
-125,-120,5,123,-65,-57,22,-69,-78,4,-77,-92
-126,-121,5,124,-65,-58,23,-69,-77,5,-76,-92
-126,-121,5,124,-65,-58,23,-69,-77,4,-76,-92
-126,-121,5,124,-65,-58,23,-69,-77,4,-76,-91
-126,-121,5,124,-65,-58,23,-69,-77,4,-76,-92
-127,-122,5,125,-66,-58,23,-69,-77,4,-76,-92
-127,-123,4,125,-65,-59,23,-69,-77,4,-76,-92
-127,-123,4,125,-65,-59,22,-70,-77,4,-76,-92
-128,-124,4,126,-66,-60,23,-69,-77,4,-76,-91
-128,-124,4,126,-66,-60,22,-70,-77,4,-76,-91
-127,-124,3,126,-65,-60,21,-70,-78,3,-76,-92
-125,-123,2,124,-63,-60,22,-70,-78,3,-76,-92
-124,-122,2,123,-63,-60,23,-69,-77,4,-76,-91
-123,-121,2,122,-62,-59,22,-70,-77,3,-77,-92
-123,-121,2,122,-62,-59,22,-70,-77,2,-77,-93
-123,-121,2,122,-62,-59,21,-71,-78,2,-78,-94
-124,-122,2,123,-63,-60,21,-71,-78,2,-78,-94
-125,-123,2,124,-63,-60,20,-72,-79,1,-79,-95
-126,-124,2,125,-64,-61,20,-72,-79,1,-79,-94
-128,-124,4,126,-66,-60,20,-72,-79,2,-78,-93
-128,-124,4,126,-66,-60,21,-71,-78,3,-77,-93
-128,-124,4,126,-66,-60,22,-70,-78,3,-77,-91
-128,-123,5,126,-66,-59,22,-70,-78,3,-77,-91
-127,-122,5,125,-66,-58,23,-70,-77,3,-76,-91
-127,-121,6,124,-66,-57,22,-70,-77,3,-77,-91
-126,-121,5,124,-65,-58,23,-70,-77,3,-76,-90
-125,-120,5,123,-65,-57,22,-71,-77,3,-76,-91
-124,-120,4,122,-64,-58,21,-71,-78,3,-76,-90
-124,-120,4,122,-64,-58,21,-71,-78,3,-76,-90
-124,-120,4,122,-64,-58,21,-71,-78,3,-76,-90
-124,-120,4,122,-64,-58,22,-70,-78,4,-75,-90
-124,-120,4,122,-64,-58,22,-70,-77,4,-76,-90
-125,-121,4,123,-64,-58,23,-69,-76,4,-75,-89
-126,-121,5,124,-65,-58,23,-69,-77,3,-76,-90
-127,-121,6,124,-66,-57,22,-70,-77,3,-76,-90
-127,-121,6,124,-66,-57,22,-70,-77,2,-77,-91
-126,-121,5,124,-65,-58,22,-70,-77,2,-77,-91
-126,-120,6,123,-66,-57,22,-71,-78,2,-77,-91
-126,-119,7,123,-66,-56,21,-71,-78,1,-77,-91
-125,-119,6,122,-65,-56,22,-70,-78,2,-76,-90
-124,-118,6,121,-65,-56,22,-70,-79,2,-76,-90
-124,-118,6,121,-65,-56,22,-70,-78,3,-76,-89
-124,-118,6,121,-65,-56,23,-70,-78,3,-76,-89
-124,-119,5,122,-64,-57,23,-69,-77,3,-75,-88
-124,-120,4,122,-64,-58,23,-69,-77,3,-76,-89
-125,-120,5,123,-65,-57,23,-70,-78,2,-76,-89
-125,-121,4,123,-64,-58,23,-69,-77,3,-76,-88
-125,-121,4,123,-64,-58,23,-70,-77,3,-75,-88
-125,-121,4,123,-64,-58,22,-70,-78,4,-75,-88
-125,-121,4,123,-64,-58,22,-70,-78,4,-75,-88
-124,-121,3,123,-63,-59,21,-70,-79,2,-76,-89
-124,-121,3,123,-63,-59,21,-70,-79,2,-76,-89
-124,-122,2,123,-63,-60,22,-69,-78,3,-75,-89
-125,-122,3,124,-64,-59,22,-70,-78,2,-76,-90
-125,-122,3,124,-64,-59,22,-70,-78,2,-77,-90
-124,-121,3,123,-63,-59,21,-71,-79,1,-78,-91
-124,-120,4,122,-64,-58,21,-71,-78,2,-77,-90
-124,-120,4,122,-64,-58,21,-71,-79,2,-77,-90
-124,-120,4,122,-64,-58,21,-71,-79,2,-77,-89
-125,-120,5,123,-65,-57,20,-71,-79,1,-77,-89
-126,-121,5,124,-65,-58,21,-70,-79,2,-76,-88
-127,-121,6,124,-66,-57,21,-71,-79,1,-77,-89
-128,-122,6,125,-67,-58,22,-70,-78,2,-76,-88
-127,-122,5,125,-66,-58,22,-69,-77,2,-76,-88
-127,-121,6,124,-66,-57,21,-70,-77,2,-77,-89
-126,-121,5,124,-65,-58,22,-70,-77,3,-76,-88
-126,-121,5,124,-65,-58,21,-71,-77,3,-76,-88
-127,-122,5,125,-66,-58,21,-71,-77,4,-75,-87
-127,-122,5,125,-66,-58,21,-71,-77,4,-75,-87
-127,-122,5,125,-66,-58,21,-71,-78,4,-75,-87
-127,-123,4,125,-65,-59,21,-71,-78,4,-75,-88
-127,-123,4,125,-65,-59,22,-71,-78,4,-76,-88
-126,-122,4,124,-65,-59,21,-71,-78,3,-76,-88
-126,-121,5,124,-65,-58,22,-70,-77,4,-75,-88
-126,-121,5,124,-65,-58,23,-70,-76,5,-75,-87
-125,-120,5,123,-65,-57,22,-71,-76,4,-75,-88
-125,-119,6,122,-65,-56,21,-71,-76,5,-75,-87
-125,-118,7,122,-66,-55,21,-70,-76,5,-74,-87
-125,-118,7,122,-66,-55,22,-70,-76,6,-73,-86
-124,-117,7,121,-65,-55,21,-69,-76,5,-74,-87
-124,-117,7,121,-65,-55,22,-68,-76,6,-73,-86
-123,-117,6,120,-64,-55,23,-66,-74,6,-73,-86
-123,-116,7,120,-65,-54,24,-66,-74,6,-73,-86
-122,-116,6,119,-64,-55,25,-64,-72,7,-73,-86
-121,-115,6,118,-63,-54,25,-64,-72,7,-73,-87
-120,-115,5,118,-62,-55,26,-64,-71,7,-72,-87
-119,-114,5,117,-62,-54,26,-64,-72,7,-73,-87
-119,-114,5,117,-62,-54,26,-64,-72,7,-73,-86
-119,-114,5,117,-62,-54,27,-64,-72,7,-72,-86
-119,-115,4,117,-61,-55,29,-62,-71,8,-71,-85
-119,-116,3,118,-61,-56,29,-62,-71,8,-71,-85
-119,-116,3,118,-61,-56,30,-60,-70,9,-71,-85
-119,-116,3,118,-61,-56,32,-59,-68,10,-70,-85
-118,-115,3,117,-60,-56,33,-58,-67,10,-70,-85
-117,-113,4,115,-60,-54,34,-56,-65,12,-70,-85
-117,-110,7,114,-62,-51,34,-55,-63,13,-69,-84
-116,-109,7,113,-61,-51,35,-54,-61,15,-67,-82
-116,-109,7,113,-61,-51,35,-53,-61,16,-67,-81
-116,-109,7,113,-61,-51,35,-53,-60,16,-67,-81
-116,-110,6,113,-61,-52,34,-54,-61,16,-67,-80
-116,-112,4,114,-60,-54,33,-54,-61,17,-66,-79
-117,-114,3,116,-60,-55,32,-55,-62,17,-65,-79
-116,-116,0,116,-58,-58,30,-57,-63,16,-66,-80
-116,-117,-1,117,-57,-59,28,-58,-64,15,-66,-81
-115,-117,-2,116,-56,-59,26,-60,-66,14,-67,-81
-115,-117,-2,116,-56,-59,24,-62,-68,12,-68,-82
-115,-118,-3,117,-56,-60,22,-64,-70,11,-69,-83
-115,-119,-4,117,-55,-61,21,-65,-72,10,-70,-83
-116,-120,-4,118,-56,-62,19,-67,-75,8,-71,-84
-116,-121,-5,119,-55,-63,19,-68,-76,7,-71,-84
-117,-123,-6,120,-55,-64,19,-68,-77,7,-71,-83
-117,-125,-8,121,-54,-66,18,-69,-78,7,-72,-84
-117,-126,-9,122,-54,-67,19,-69,-77,7,-71,-83
-118,-126,-8,122,-55,-67,19,-70,-78,7,-72,-84
-119,-126,-7,123,-56,-66,19,-70,-78,6,-73,-84
-119,-126,-7,123,-56,-66,18,-71,-79,5,-74,-85
-120,-127,-7,124,-56,-67,19,-71,-79,5,-74,-86
-121,-128,-7,125,-57,-67,20,-71,-79,4,-75,-86
-122,-129,-7,126,-57,-68,20,-71,-81,3,-76,-88
-122,-129,-7,126,-57,-68,20,-72,-82,1,-78,-89
-123,-130,-7,127,-58,-68,22,-72,-82,1,-78,-90
-124,-131,-7,128,-58,-69,22,-72,-82,1,-78,-90
-125,-131,-6,128,-59,-68,22,-73,-83,0,-79,-91
-125,-132,-7,129,-59,-69,21,-74,-83,-1,-80,-91
-126,-133,-7,130,-59,-70,21,-74,-83,0,-79,-90
-127,-133,-6,130,-60,-69,21,-75,-83,0,-79,-91
-127,-132,-5,130,-61,-68,20,-75,-83,0,-79,-90
-127,-131,-4,129,-61,-67,20,-75,-83,0,-78,-90
-127,-131,-4,129,-61,-67,21,-74,-82,1,-78,-89
-126,-130,-4,128,-61,-67,20,-74,-83,1,-78,-89
-126,-130,-4,128,-61,-67,20,-74,-83,1,-78,-89
-126,-130,-4,128,-61,-67,20,-74,-82,1,-77,-89
-126,-130,-4,128,-61,-67,21,-74,-82,1,-77,-89
-126,-130,-4,128,-61,-67,20,-74,-82,0,-78,-90
-127,-130,-3,129,-62,-66,20,-75,-82,0,-78,-90
-127,-131,-4,129,-61,-67,20,-74,-82,1,-77,-89
-127,-130,-3,129,-62,-66,19,-75,-83,0,-78,-90
-127,-130,-3,129,-62,-66,18,-75,-82,0,-78,-90
-127,-129,-2,128,-62,-65,18,-75,-82,0,-78,-90
-126,-129,-3,128,-61,-66,18,-74,-82,1,-78,-89
-126,-128,-2,127,-62,-65,17,-74,-83,0,-78,-90
-125,-128,-3,127,-61,-65,18,-74,-82,0,-78,-90
-125,-128,-3,127,-61,-65,18,-74,-81,1,-78,-90
-126,-128,-2,127,-62,-65,18,-73,-81,1,-78,-89
-126,-128,-2,127,-62,-65,18,-73,-81,1,-78,-90
-127,-128,-1,128,-63,-64,19,-72,-79,2,-77,-89
-126,-128,-2,127,-62,-65,18,-73,-80,2,-77,-89
-126,-128,-2,127,-62,-65,18,-73,-80,3,-76,-89
-126,-127,-1,127,-62,-64,18,-73,-80,3,-76,-89
-126,-127,-1,127,-62,-64,18,-72,-79,4,-75,-88
-125,-127,-2,126,-61,-64,19,-71,-79,4,-75,-88
-125,-127,-2,126,-61,-64,19,-70,-79,4,-75,-88
-126,-128,-2,127,-62,-65,20,-69,-78,3,-77,-89
-126,-130,-4,128,-61,-67,21,-66,-77,2,-78,-90
-126,-131,-5,129,-60,-68,23,-63,-76,1,-80,-92
-126,-133,-7,130,-59,-70,27,-58,-73,0,-81,-94
-127,-134,-7,131,-60,-70,32,-52,-70,-1,-83,-96
-127,-136,-9,132,-59,-72,36,-45,-68,-3,-86,-98
-126,-137,-11,132,-57,-74,41,-38,-64,-4,-88,-100
-125,-137,-12,131,-56,-74,47,-28,-57,-4,-90,-102
-124,-135,-11,130,-56,-73,52,-18,-49,-3,-90,-102
-123,-132,-9,128,-57,-70,58,-6,-37,1,-88,-100
-120,-126,-6,123,-57,-66,63,7,-23,7,-84,-96
-114,-118,-4,116,-55,-61,66,23,-4,18,-77,-91
-108,-107,1,108,-54,-53,70,42,20,34,-65,-82
-100,-94,6,97,-53,-44,74,63,48,56,-51,-70
-92,-79,13,86,-52,-33,78,83,81,83,-31,-55
-85,-62,23,74,-54,-19,80,99,115,116,-8,-37
-78,-41,37,60,-57,-2,78,103,145,151,18,-18
-72,-19,53,46,-62,17,74,95,166,190,47,5
-68,5,73,32,-70,39,65,67,171,230,78,30
-67,29,96,19,-81,63,50,17,157,269,109,55
-68,54,122,7,-95,88,28,-52,126,307,140,79
-71,78,149,-3,-110,114,-1,-134,87,347,172,105
-75,98,173,-11,-124,136,-36,-222,44,387,200,127
-80,107,187,-13,-133,147,-72,-302,4,420,220,141
-85,102,187,-8,-136,145,-101,-363,-29,442,228,144
-90,84,174,3,-132,129,-127,-409,-54,449,222,136
-94,58,152,18,-123,105,-145,-437,-75,441,204,120
-99,24,123,38,-111,74,-154,-446,-97,414,175,95
-104,-13,91,59,-97,39,-158,-444,-122,366,133,62
-111,-47,64,79,-87,9,-164,-438,-157,296,85,28
-120,-73,47,97,-83,-13,-167,-432,-199,215,39,-3
-130,-92,38,111,-84,-27,-168,-420,-237,133,-5,-30
-139,-108,31,124,-85,-38,-166,-399,-263,60,-43,-54
-145,-119,26,132,-85,-46,-161,-371,-275,3,-71,-73
-147,-126,21,137,-84,-52,-153,-340,-276,-35,-90,-86
-148,-130,18,139,-83,-56,-138,-305,-263,-53,-100,-94
-145,-130,15,138,-80,-57,-121,-268,-235,-50,-101,-98
-140,-127,13,134,-76,-57,-104,-232,-202,-34,-95,-95
-135,-122,13,129,-74,-54,-90,-203,-174,-17,-88,-91
-130,-117,13,124,-71,-52,-75,-175,-148,-2,-80,-86
-126,-113,13,120,-69,-50,-58,-151,-125,10,-74,-83
-123,-109,14,116,-68,-47,-43,-131,-104,19,-68,-78
-120,-106,14,113,-67,-46,-31,-113,-87,27,-63,-75
-118,-103,15,111,-66,-44,-20,-98,-72,33,-59,-72
-115,-101,14,108,-64,-43,-9,-85,-60,38,-56,-70
-114,-99,15,107,-64,-42,-1,-74,-51,41,-53,-68
-112,-99,13,106,-62,-43,5,-66,-46,43,-52,-68
-112,-101,11,107,-61,-45,11,-59,-41,44,-51,-67
-112,-103,9,108,-60,-47,15,-53,-39,44,-53,-69
-113,-105,8,109,-60,-48,18,-48,-37,43,-53,-70
-113,-107,6,110,-59,-50,20,-45,-36,41,-55,-71
-114,-109,5,112,-59,-52,22,-43,-34,40,-57,-72
-115,-110,5,113,-60,-52,24,-40,-32,39,-58,-73
-114,-110,4,112,-59,-53,24,-40,-31,38,-59,-74
-113,-109,4,111,-58,-52,26,-38,-29,39,-58,-73
-113,-108,5,111,-59,-51,26,-38,-28,39,-58,-74
-113,-108,5,111,-59,-51,26,-37,-28,40,-57,-73
-113,-107,6,110,-59,-50,27,-35,-27,41,-56,-73
-113,-107,6,110,-59,-50,28,-32,-26,42,-55,-73
-113,-107,6,110,-59,-50,29,-31,-25,43,-55,-73
-113,-108,5,111,-59,-51,29,-30,-25,42,-56,-74
-114,-109,5,112,-59,-52,31,-27,-22,43,-55,-73
-113,-109,4,111,-58,-52,32,-26,-20,43,-55,-73
-113,-109,4,111,-58,-52,33,-26,-19,44,-55,-74
-113,-108,5,111,-59,-51,32,-26,-19,44,-56,-74
-113,-108,5,111,-59,-51,32,-26,-18,45,-55,-73
-112,-107,5,110,-58,-51,32,-24,-17,47,-53,-72
-112,-106,6,109,-59,-50,32,-24,-18,48,-53,-72
-111,-106,5,109,-58,-50,33,-22,-17,49,-52,-71
-110,-106,4,108,-57,-51,34,-21,-16,50,-52,-71
-110,-106,4,108,-57,-51,35,-20,-15,50,-52,-71
-111,-107,4,109,-57,-51,36,-19,-13,50,-52,-72
-111,-107,4,109,-57,-51,36,-19,-12,50,-53,-73
-111,-107,4,109,-57,-51,36,-19,-10,50,-53,-73
-111,-107,4,109,-57,-51,36,-19,-9,50,-52,-73
-112,-107,5,110,-58,-51,36,-18,-8,52,-51,-72
-112,-106,6,109,-59,-50,35,-18,-8,53,-51,-73
-111,-106,5,109,-58,-50,35,-17,-7,54,-49,-73
-111,-105,6,108,-58,-49,36,-16,-7,56,-49,-73
-111,-105,6,108,-58,-49,36,-14,-6,57,-48,-73
-110,-104,6,107,-58,-49,37,-14,-5,56,-49,-73
"
		-109","
		-104","
		5","
		107","
		-57","
		-49","
		38","
		-12","
		-3","
		57","
		-48","
		-73"
-109,-105,4,107,-56,-50,38,-12,-2,57,-49,-74
-109,-105,4,107,-56,-50,38,-12,0,57,-49,-74
-109,-105,4,107,-56,-50,38,-11,1,58,-48,-74
-109,-104,5,107,-57,-49,39,-10,2,60,-47,-73
-109,-104,5,107,-57,-49,39,-9,3,62,-46,-72
-109,-103,6,106,-57,-48,38,-9,3,63,-45,-72
-108,-103,5,106,-56,-49,39,-7,4,65,-44,-72
-107,-102,5,105,-56,-48,39,-6,5,65,-44,-72
-106,-101,5,104,-55,-48,41,-4,8,67,-43,-71
-105,-101,4,103,-54,-48,41,-3,9,67,-43,-72
-104,-101,3,103,-53,-49,42,-2,11,68,-42,-72
-104,-101,3,103,-53,-49,42,-1,13,68,-42,-72
-105,-101,4,103,-54,-48,42,-1,14,69,-42,-72
-106,-102,4,104,-55,-49,42,-1,15,70,-41,-72
-106,-102,4,104,-55,-49,40,-1,15,71,-41,-72
-107,-103,4,105,-55,-49,40,0,15,72,-40,-71
-108,-103,5,106,-56,-49,39,1,16,72,-40,-72
-107,-103,4,105,-55,-49,40,2,17,74,-39,-71
-106,-103,3,105,-54,-50,40,4,18,74,-39,-72
-106,-102,4,104,-55,-49,41,6,21,76,-38,-71
-106,-102,4,104,-55,-49,42,7,23,77,-38,-71
-105,-101,4,103,-54,-48,42,8,25,78,-38,-71
-105,-100,5,103,-55,-47,42,9,27,79,-36,-70
-105,-99,6,102,-55,-46,42,10,29,81,-35,-69
-105,-98,7,102,-56,-45,41,10,29,83,-35,-69
-105,-97,8,101,-56,-44,42,12,31,86,-32,-67
-104,-96,8,100,-56,-44,42,14,32,87,-31,-67
-103,-95,8,99,-55,-43,43,17,35,90,-30,-65
-102,-95,7,99,-54,-44,44,19,37,91,-30,-66
-101,-94,7,98,-54,-43,45,21,40,93,-28,-65
-100,-94,6,97,-53,-44,45,22,41,93,-28,-65
-99,-94,5,97,-52,-44,46,23,44,94,-28,-65
-99,-94,5,97,-52,-44,45,24,46,96,-27,-65
-99,-94,5,97,-52,-44,45,26,47,98,-26,-64
-99,-94,5,97,-52,-44,45,27,49,100,-24,-63
-99,-94,5,97,-52,-44,45,29,50,102,-23,-62
-99,-93,6,96,-52,-43,45,31,52,105,-22,-61
-99,-93,6,96,-52,-43,46,34,55,107,-20,-60
-98,-93,5,96,-51,-44,47,36,57,109,-20,-60
-98,-93,5,96,-51,-44,48,38,60,111,-18,-60
-97,-93,4,95,-50,-44,49,41,64,113,-17,-59
-96,-92,4,94,-50,-44,49,42,67,115,-17,-59
-95,-91,4,93,-49,-43,50,44,70,118,-15,-58
-95,-90,5,93,-50,-42,50,46,72,121,-14,-57
-94,-89,5,92,-49,-42,51,49,76,125,-11,-55
-93,-87,6,90,-49,-40,51,52,78,129,-9,-53
-91,-85,6,88,-48,-39,51,54,81,131,-7,-53
-90,-84,6,87,-48,-39,53,58,85,136,-4,-50
-89,-83,6,86,-47,-38,53,61,89,139,-3,-50
-88,-81,7,85,-47,-37,54,64,93,142,-1,-49
-87,-80,7,84,-47,-36,54,67,97,146,0,-48
-86,-78,8,82,-47,-35,54,69,101,150,2,-46
-85,-77,8,81,-46,-34,55,73,106,155,6,-44
-85,-75,10,80,-47,-32,54,75,109,159,8,-42
-85,-74,11,80,-48,-31,54,78,114,165,12,-39
-84,-72,12,78,-48,-30,54,81,117,169,14,-37
-83,-71,12,77,-47,-29,54,84,121,174,17,-35
-82,-70,12,76,-47,-29,54,88,125,179,20,-33
-81,-69,12,75,-46,-28,56,92,130,185,23,-31
-79,-67,12,73,-45,-27,56,95,135,189,25,-29
-77,-65,12,71,-44,-26,57,99,141,195,28,-27
-75,-62,13,69,-44,-24,57,101,146,200,31,-25
-73,-59,14,66,-43,-22,57,104,151,207,35,-22
-71,-57,14,64,-42,-21,56,106,155,212,39,-19
-69,-54,15,62,-42,-19,56,109,160,220,43,-15
-67,-51,16,59,-41,-17,54,112,163,226,47,-13
-66,-48,18,57,-42,-15,54,114,167,232,51,-10
-65,-47,18,56,-41,-14,53,117,171,237,54,-7
-64,-45,19,55,-41,-13,53,120,176,242,57,-5
-63,-43,20,53,-41,-11,54,122,180,248,61,-2
-62,-41,21,52,-41,-10,53,124,185,253,64,0
-61,-38,23,50,-42,-7,53,126,190,259,68,3
-59,-36,23,48,-41,-6,51,127,193,264,71,5
-58,-33,25,46,-41,-4,51,129,197,270,75,9
-57,-30,27,44,-42,-1,50,130,201,277,80,13
-55,-28,27,42,-41,0,48,130,203,282,83,15
-54,-25,29,40,-41,2,48,133,207,288,87,18
-52,-22,30,37,-41,4,47,134,209,292,90,20
-51,-20,31,36,-41,6,46,135,213,297,93,23
-49,-18,31,34,-40,7,46,135,216,301,96,25
-47,-15,32,31,-39,9,44,135,217,304,98,26
-46,-13,33,30,-39,10,43,134,219,307,100,28
-46,-11,35,29,-40,12,42,133,221,310,103,31
-46,-9,37,28,-41,14,41,131,220,312,106,33
-46,-7,39,27,-42,16,39,128,219,313,107,34
-46,-5,41,26,-43,18,39,126,218,313,108,36
-47,-4,43,26,-45,20,38,123,216,313,109,37
-48,-3,45,26,-46,21,37,120,213,310,109,37
-49,-2,47,26,-48,23,37,116,209,307,107,36
-51,-3,48,27,-49,23,37,112,205,302,105,35
-53,-4,49,29,-51,23,36,106,199,295,102,34
-55,-5,50,30,-52,23,35,100,193,288,99,32
-57,-6,51,32,-54,23,35,93,185,280,95,29
-59,-8,51,34,-55,22,34,86,176,271,90,27
-62,-10,52,36,-57,21,33,80,167,262,86,25
-64,-13,51,39,-57,19,33,73,157,252,81,22
-66,-15,51,41,-58,18,33,67,148,242,76,19
-68,-18,50,43,-59,16,32,60,137,230,68,14
-71,-22,49,47,-60,14,33,55,128,219,62,10
-73,-26,47,50,-60,11,33,48,117,207,55,4
-75,-31,44,53,-59,7,33,41,107,194,47,-2
-78,-36,42,57,-60,3,33,35,97,183,40,-6
-80,-41,39,61,-59,-1,32,28,87,171,33,-11
-82,-46,36,64,-59,-5,32,21,77,160,27,-16
-85,-51,34,68,-59,-8,32,16,68,151,22,-20
-87,-56,31,72,-59,-12,32,10,58,141,16,-24
-90,-60,30,75,-60,-15,32,6,49,132,10,-28
-93,-65,28,79,-60,-18,32,1,40,123,5,-32
-95,-69,26,82,-60,-21,32,-4,32,113,-2,-37
-98,-73,25,86,-61,-24,32,-8,26,105,-7,-40
-100,-76,24,88,-62,-26,32,-13,18,96,-13,-45
-101,-79,22,90,-61,-28,32,-16,12,89,-17,-48
-103,-82,21,93,-62,-30,31,-21,5,82,-22,-52
-104,-86,18,95,-61,-34,32,-24,0,77,-25,-54
-106,-89,17,98,-61,-36,32,-27,-5,72,-28,-56
-108,-92,16,100,-62,-38,31,-30,-11,67,-32,-58
-110,-96,14,103,-62,-41,31,-32,-15,63,-34,-60
-112,-98,14,105,-63,-42,32,-33,-18,60,-37,-61
-113,-101,12,107,-62,-44,32,-35,-22,56,-40,-64
-113,-104,9,109,-61,-47,32,-36,-25,51,-42,-66
-113,-108,5,111,-59,-51,33,-37,-28,48,-45,-67
-113,-112,1,113,-57,-55,35,-38,-28,47,-45,-67
-113,-118,-5,116,-54,-61,36,-37,-29,46,-45,-67
-114,-124,-10,119,-52,-67,37,-38,-30,46,-45,-66
-115,-128,-13,122,-51,-70,38,-38,-31,45,-44,-66
-115,-130,-15,123,-50,-72,37,-39,-33,43,-46,-67
-116,-128,-12,122,-52,-70,36,-40,-36,41,-47,-69
-117,-125,-8,121,-54,-66,34,-42,-39,38,-50,-71
-117,-121,-4,119,-56,-62,33,-44,-41,36,-53,-73
-117,-117,0,117,-58,-58,31,-46,-43,32,-56,-76
-117,-113,4,115,-60,-54,29,-49,-46,29,-60,-79
-118,-113,5,116,-61,-54,29,-49,-46,28,-60,-79
-118,-114,4,116,-61,-55,29,-50,-47,27,-61,-80
-119,-116,3,118,-61,-56,29,-50,-47,27,-61,-79
-119,-116,3,118,-61,-56,29,-50,-48,27,-60,-79
-119,-116,3,118,-61,-56,29,-50,-49,27,-60,-78
-118,-116,2,117,-60,-57,29,-50,-48,28,-59,-78
-117,-117,0,117,-58,-58,30,-49,-48,28,-59,-77
-117,-117,0,117,-58,-58,31,-48,-47,29,-58,-77
-116,-118,-2,117,-57,-60,31,-48,-47,28,-59,-77
-116,-119,-3,118,-56,-61,31,-48,-47,28,-59,-78
-116,-120,-4,118,-56,-62,31,-47,-47,27,-60,-78
-116,-120,-4,118,-56,-62,31,-47,-46,27,-60,-78
-116,-120,-4,118,-56,-62,31,-47,-46,28,-59,-77
-117,-120,-3,119,-57,-61,32,-46,-45,29,-58,-76
-117,-120,-3,119,-57,-61,31,-46,-46,29,-58,-77
-118,-119,-1,119,-58,-60,31,-46,-47,28,-59,-78
-119,-120,-1,120,-59,-60,31,-46,-47,28,-59,-78
-119,-120,-1,120,-59,-60,31,-46,-47,27,-60,-79
-120,-120,0,120,-60,-60,32,-45,-46,27,-60,-79
-119,-120,-1,120,-59,-60,31,-46,-47,26,-61,-80
-119,-119,0,119,-59,-59,31,-45,-46,27,-61,-79
-118,-119,-1,119,-58,-60,32,-44,-45,28,-60,-78
-117,-118,-1,118,-58,-59,32,-45,-45,28,-59,-78
-116,-117,-1,117,-57,-59,31,-45,-45,28,-59,-78
-115,-116,-1,116,-57,-58,31,-44,-45,29,-59,-77
-115,-116,-1,116,-57,-58,32,-44,-45,30,-58,-77
-115,-118,-3,117,-56,-60,32,-43,-45,30,-58,-77
-116,-120,-4,118,-56,-62,33,-43,-44,30,-58,-77
-117,-124,-7,121,-55,-65,34,-41,-43,31,-57,-76
-117,-129,-12,123,-52,-70,36,-40,-41,31,-56,-75
-118,-133,-15,126,-51,-74,36,-40,-41,31,-56,-75
-119,-135,-16,127,-51,-75,36,-40,-40,32,-55,-75
-120,-134,-14,127,-53,-74,35,-40,-41,32,-55,-75
-120,-131,-11,126,-54,-71,34,-41,-42,31,-55,-76
-120,-127,-7,124,-56,-67,33,-42,-43,31,-56,-76
-120,-122,-2,121,-59,-62,31,-44,-45,29,-57,-78
-119,-118,1,119,-60,-58,31,-44,-46,28,-58,-79
-119,-116,3,118,-61,-56,30,-45,-47,27,-59,-80
-118,-116,2,117,-60,-57,31,-44,-46,26,-60,-80
-118,-117,1,118,-59,-58,31,-44,-46,26,-61,-80
-118,-118,0,118,-59,-59,32,-45,-46,26,-61,-80
-118,-118,0,118,-59,-59,32,-45,-46,25,-61,-80
-118,-118,0,118,-59,-59,31,-45,-46,26,-61,-80
-118,-119,-1,119,-58,-60,33,-44,-46,27,-59,-78
-117,-119,-2,118,-57,-60,32,-45,-47,27,-59,-78
-117,-121,-4,119,-56,-62,33,-44,-46,28,-58,-77
-118,-124,-6,121,-56,-65,33,-44,-46,28,-57,-77
-118,-126,-8,122,-55,-67,34,-43,-46,28,-57,-77
-118,-126,-8,122,-55,-67,34,-44,-46,27,-58,-77
-118,-126,-8,122,-55,-67,34,-44,-47,27,-58,-77
-118,-125,-7,122,-55,-66,34,-44,-47,26,-59,-78
-117,-123,-6,120,-55,-64,33,-46,-48,25,-60,-79
-117,-121,-4,119,-56,-62,32,-47,-50,24,-61,-80
-117,-119,-2,118,-57,-60,31,-49,-51,24,-62,-80
-117,-119,-2,118,-57,-60,31,-49,-51,24,-61,-80
-117,-119,-2,118,-57,-60,31,-49,-52,24,-61,-80
-117,-121,-4,119,-56,-62,32,-49,-51,24,-60,-79
-117,-123,-6,120,-55,-64,33,-47,-50,25,-59,-78
-117,-126,-9,122,-54,-67,34,-46,-49,25,-58,-77
-117,-129,-12,123,-52,-70,35,-45,-48,26,-58,-76
-117,-131,-14,124,-51,-72,34,-46,-49,25,-58,-77
-118,-132,-14,125,-52,-73,34,-46,-49,25,-58,-77
-119,-131,-12,125,-53,-71,34,-47,-50,24,-59,-78
-120,-128,-8,124,-56,-68,32,-49,-52,23,-60,-80
-121,-126,-5,124,-58,-65,31,-50,-54,22,-61,-81
-121,-124,-3,123,-59,-63,29,-51,-56,20,-63,-82
-121,-122,-1,122,-60,-61,30,-51,-56,20,-63,-82
-120,-121,-1,121,-59,-61,29,-52,-57,19,-64,-83
-120,-122,-2,121,-59,-62,30,-52,-57,18,-65,-83
-119,-123,-4,121,-57,-63,30,-53,-57,18,-65,-84
-119,-123,-4,121,-57,-63,31,-52,-57,18,-65,-83
-118,-121,-3,120,-57,-62,31,-53,-58,18,-65,-84
-117,-120,-3,119,-57,-61,31,-53,-58,19,-64,-83
-117,-120,-3,119,-57,-61,31,-53,-58,19,-64,-83
-118,-120,-2,119,-58,-61,31,-54,-59,19,-64,-83
-118,-121,-3,120,-57,-62,30,-54,-60,19,-64,-83
-118,-122,-4,120,-57,-63,31,-54,-60,19,-64,-83
-119,-123,-4,121,-57,-63,30,-55,-61,18,-65,-84
-120,-124,-4,122,-58,-64,30,-55,-61,17,-65,-84
-121,-123,-2,122,-59,-62,30,-56,-61,16,-66,-85
-120,-123,-3,122,-58,-63,30,-56,-61,16,-66,-86
-120,-122,-2,121,-59,-62,28,-58,-63,14,-68,-87
-121,-123,-2,122,-59,-62,29,-58,-63,14,-67,-86
-121,-123,-2,122,-59,-62,29,-58,-63,15,-66,-86
-120,-124,-4,122,-58,-64,29,-58,-63,15,-66,-85
-119,-126,-7,123,-56,-66,29,-58,-63,16,-66,-84
-119,-128,-9,124,-55,-68,31,-56,-62,17,-65,-83
-119,-128,-9,124,-55,-68,31,-56,-62,17,-65,-83
-118,-128,-10,123,-54,-69,32,-55,-62,17,-65,-82
-118,-126,-8,122,-55,-67,31,-56,-63,16,-66,-83
-117,-123,-6,120,-55,-64,30,-58,-64,15,-67,-84
-117,-121,-4,119,-56,-62,29,-60,-65,13,-69,-85
-118,-120,-2,119,-58,-61,28,-61,-67,13,-70,-86
-119,-120,-1,120,-59,-60,27,-62,-68,11,-71,-86
-120,-121,-1,121,-59,-61,27,-62,-68,12,-71,-86
-121,-122,-1,122,-60,-61,27,-62,-69,12,-71,-86
-122,-124,-2,123,-60,-63,27,-61,-69,12,-70,-86
-123,-125,-2,124,-60,-63,27,-62,-69,12,-71,-86
-122,-125,-3,124,-59,-64,28,-61,-69,11,-71,-86
-122,-126,-4,124,-59,-65,28,-61,-68,12,-70,-85
-121,-127,-6,124,-57,-66,29,-61,-68,12,-70,-85
-121,-129,-8,125,-56,-68,30,-60,-66,13,-68,-83
-121,-132,-11,127,-55,-71,31,-59,-65,15,-67,-82
-121,-133,-12,127,-54,-72,31,-59,-66,15,-67,-82
-121,-134,-13,128,-54,-73,31,-59,-65,16,-66,-82
-122,-132,-10,127,-56,-71,29,-61,-67,15,-68,-83
-122,-131,-9,127,-56,-70,29,-61,-68,14,-69,-84
-122,-128,-6,125,-58,-67,28,-62,-69,13,-70,-85
-122,-125,-3,124,-59,-64,27,-63,-70,11,-71,-86
-122,-124,-2,123,-60,-63,27,-64,-69,11,-71,-86
-121,-123,-2,122,-59,-62,26,-65,-70,10,-72,-87
-121,-122,-1,122,-60,-61,26,-64,-69,11,-71,-86
-120,-123,-3,122,-58,-63,27,-64,-69,11,-70,-85
-120,-123,-3,122,-58,-63,27,-64,-69,12,-70,-85
-120,-123,-3,122,-58,-63,27,-64,-69,13,-70,-84
-120,-124,-4,122,-58,-64,27,-63,-69,13,-69,-84
-120,-124,-4,122,-58,-64,27,-63,-70,13,-69,-84
-120,-125,-5,123,-57,-65,27,-64,-70,12,-70,-85
-120,-125,-5,123,-57,-65,27,-64,-70,12,-70,-86
-120,-126,-6,123,-57,-66,29,-63,-69,13,-70,-85
-120,-126,-6,123,-57,-66,29,-63,-69,12,-70,-85
-120,-125,-5,123,-57,-65,28,-64,-70,11,-70,-86
-120,-125,-5,123,-57,-65,28,-64,-69,12,-70,-85
-119,-124,-5,122,-57,-64,29,-63,-69,13,-69,-84
-118,-124,-6,121,-56,-65,28,-63,-70,12,-70,-85
-118,-124,-6,121,-56,-65,28,-63,-70,12,-70,-85
-119,-124,-5,122,-57,-64,29,-63,-69,13,-69,-84
-119,-124,-5,122,-57,-64,29,-63,-69,13,-70,-85
-119,-125,-6,122,-56,-65,29,-63,-69,12,-70,-85
-119,-125,-6,122,-56,-65,29,-63,-69,12,-70,-86
-119,-125,-6,122,-56,-65,29,-63,-69,12,-70,-86
-119,-124,-5,122,-57,-64,30,-63,-69,12,-70,-86
-119,-123,-4,121,-57,-63,29,-64,-69,12,-70,-86
-119,-123,-4,121,-57,-63,29,-65,-70,12,-70,-86
-120,-124,-4,122,-58,-64,29,-64,-70,13,-70,-86
-120,-124,-4,122,-58,-64,28,-65,-70,12,-70,-87
-121,-125,-4,123,-58,-64,29,-65,-70,12,-70,-87
-122,-125,-3,124,-59,-64,28,-65,-70,11,-71,-88
-122,-126,-4,124,-59,-65,28,-65,-71,11,-72,-88
-123,-126,-3,125,-60,-64,29,-64,-70,11,-71,-88
-122,-125,-3,124,-59,-64,29,-65,-70,11,-72,-88
-122,-124,-2,123,-60,-63,29,-65,-69,11,-71,-88
-121,-124,-3,123,-59,-63,29,-65,-70,11,-71,-88
-121,-124,-3,123,-59,-63,29,-65,-70,11,-71,-88
-121,-124,-3,123,-59,-63,28,-66,-71,11,-71,-88
-121,-124,-3,123,-59,-63,27,-66,-72,10,-72,-89
-121,-126,-5,124,-58,-65,27,-66,-72,11,-72,-89
-122,-127,-5,125,-58,-66,27,-65,-71,11,-72,-89
-122,-127,-5,125,-58,-66,27,-65,-71,10,-72,-90
-123,-128,-5,126,-59,-66,26,-65,-71,10,-73,-91
-123,-128,-5,126,-59,-66,26,-66,-71,9,-73,-91
-123,-128,-5,126,-59,-66,27,-65,-71,10,-72,-90
-123,-127,-4,125,-59,-65,27,-65,-70,10,-72,-90
-123,-127,-4,125,-59,-65,27,-66,-70,10,-71,-90
-123,-126,-3,125,-60,-64,28,-65,-70,10,-71,-89
-123,-126,-3,125,-60,-64,28,-65,-70,11,-70,-89
-122,-126,-4,124,-59,-65,28,-65,-70,10,-71,-90
-121,-126,-5,124,-58,-65,28,-65,-70,10,-71,-90
-121,-126,-5,124,-58,-65,28,-65,-70,10,-72,-90
-121,-126,-5,124,-58,-65,28,-65,-70,10,-72,-90
-121,-126,-5,124,-58,-65,28,-65,-70,10,-72,-90
-121,-126,-5,124,-58,-65,28,-66,-70,9,-72,-90
-122,-126,-4,124,-59,-65,28,-66,-70,9,-72,-90
-122,-125,-3,124,-59,-64,28,-66,-70,10,-72,-90
-123,-125,-2,124,-60,-63,28,-65,-70,11,-71,-89
-122,-124,-2,123,-60,-63,29,-64,-70,11,-70,-89
-122,-124,-2,123,-60,-63,30,-63,-69,12,-70,-88
-121,-124,-3,123,-59,-63,29,-64,-70,11,-71,-89
"
		-121","
		-125","
		-4","
		123","
		-58","
		-64","
		30","
		-63","
		-70","
		11","
		-70","
		-89"
-122,-126,-4,124,-59,-65,30,-64,-70,11,-71,-90
-123,-126,-3,125,-60,-64,30,-64,-70,11,-71,-89
-123,-127,-4,125,-59,-65,29,-64,-70,10,-71,-90
-124,-128,-4,126,-60,-66,29,-64,-70,10,-71,-89
-124,-128,-4,126,-60,-66,29,-65,-70,10,-71,-89
-124,-128,-4,126,-60,-66,29,-65,-70,11,-71,-89
-123,-128,-5,126,-59,-66,28,-65,-71,11,-71,-89
-122,-127,-5,125,-58,-66,29,-64,-70,12,-70,-88
-122,-127,-5,125,-58,-66,29,-64,-70,12,-70,-88
-121,-127,-6,124,-57,-66,28,-65,-71,11,-71,-89
-121,-127,-6,124,-57,-66,28,-65,-71,10,-71,-89
-121,-127,-6,124,-57,-66,28,-66,-71,10,-71,-90
-122,-128,-6,125,-58,-67,28,-66,-71,10,-71,-89
-123,-128,-5,126,-59,-66,27,-67,-72,9,-71,-90
-123,-128,-5,126,-59,-66,26,-67,-73,9,-72,-90
-123,-129,-6,126,-58,-67,27,-66,-72,10,-71,-89
-123,-128,-5,126,-59,-66,26,-67,-73,9,-72,-90
-123,-128,-5,126,-59,-66,26,-66,-73,10,-72,-89
-122,-128,-6,125,-58,-67,27,-66,-72,10,-72,-89
-122,-129,-7,126,-57,-68,27,-66,-72,10,-72,-89
-122,-129,-7,126,-57,-68,27,-66,-71,10,-72,-89
-122,-129,-7,126,-57,-68,27,-66,-71,10,-73,-89
-123,-130,-7,127,-58,-68,28,-65,-70,11,-72,-89
-123,-131,-8,127,-57,-69,27,-66,-71,10,-72,-89
-124,-131,-7,128,-58,-69,27,-65,-71,11,-71,-88
-125,-132,-7,129,-59,-69,27,-66,-71,11,-71,-88
-125,-132,-7,129,-59,-69,27,-66,-71,11,-71,-88
-125,-132,-7,129,-59,-69,26,-66,-71,11,-71,-88
-125,-132,-7,129,-59,-69,26,-66,-71,11,-72,-89
-124,-132,-8,128,-58,-70,26,-66,-71,11,-72,-88
-124,-132,-8,128,-58,-70,27,-65,-70,11,-72,-88
-123,-132,-9,128,-57,-70,27,-65,-70,11,-72,-87
-123,-132,-9,128,-57,-70,27,-66,-70,11,-72,-87
-123,-133,-10,128,-56,-71,27,-66,-70,11,-72,-87
-122,-133,-11,128,-55,-72,27,-66,-71,11,-72,-87
-122,-133,-11,128,-55,-72,26,-66,-71,11,-71,-87
-122,-132,-10,127,-56,-71,26,-67,-72,10,-72,-87
-122,-132,-10,127,-56,-71,26,-66,-72,11,-72,-87
-121,-131,-10,126,-55,-70,26,-66,-71,11,-72,-87
-121,-131,-10,126,-55,-70,27,-65,-70,11,-71,-87
-121,-131,-10,126,-55,-70,27,-65,-70,11,-71,-87
-121,-131,-10,126,-55,-70,27,-66,-70,11,-71,-87
-121,-132,-11,127,-55,-71,26,-66,-70,11,-72,-88
-122,-132,-10,127,-56,-71,26,-66,-71,10,-72,-88
-123,-132,-9,128,-57,-70,27,-66,-70,11,-71,-87
-124,-132,-8,128,-58,-70,27,-66,-71,11,-71,-87
-124,-132,-8,128,-58,-70,27,-66,-71,11,-71,-87
-125,-132,-7,129,-59,-69,27,-66,-71,11,-71,-87
-125,-132,-7,129,-59,-69,27,-66,-71,11,-71,-88
-125,-132,-7,129,-59,-69,27,-65,-71,11,-71,-88
-124,-132,-8,128,-58,-70,27,-65,-70,11,-71,-88
-124,-132,-8,128,-58,-70,28,-65,-69,11,-71,-88
-123,-132,-9,128,-57,-70,28,-65,-69,11,-72,-88
-123,-132,-9,128,-57,-70,28,-65,-69,11,-72,-88
-123,-131,-8,127,-57,-69,27,-66,-70,11,-72,-89
-123,-131,-8,127,-57,-69,27,-66,-70,11,-71,-88
-122,-131,-9,127,-56,-70,27,-65,-70,12,-71,-88
-121,-130,-9,126,-56,-69,27,-65,-70,11,-71,-88
-121,-129,-8,125,-56,-68,28,-65,-70,12,-71,-88
-121,-128,-7,125,-57,-67,28,-64,-70,11,-71,-88
-121,-126,-5,124,-58,-65,26,-66,-71,9,-73,-90
-122,-126,-4,124,-59,-65,26,-67,-72,8,-74,-91
-123,-127,-4,125,-59,-65,26,-67,-72,9,-73,-90
-123,-130,-7,127,-58,-68,26,-66,-72,10,-73,-90
-123,-133,-10,128,-56,-71,27,-66,-71,10,-72,-89
-124,-134,-10,129,-57,-72,28,-65,-70,12,-70,-87
-123,-136,-13,130,-55,-74,28,-64,-69,13,-70,-86
-123,-137,-14,130,-54,-75,29,-63,-69,13,-69,-86
-124,-136,-12,130,-56,-74,29,-63,-68,13,-70,-86
-124,-134,-10,129,-57,-72,29,-63,-68,13,-70,-86
-124,-132,-8,128,-58,-70,28,-64,-68,12,-71,-87
-123,-131,-8,127,-57,-69,27,-65,-69,11,-72,-87
-122,-130,-8,126,-57,-69,28,-64,-68,12,-71,-86
-121,-128,-7,125,-57,-67,28,-64,-68,13,-70,-86
-119,-127,-8,123,-55,-67,28,-63,-67,14,-69,-86
-118,-125,-7,122,-55,-66,28,-62,-67,14,-69,-85
-117,-125,-8,121,-54,-66,28,-61,-66,15,-68,-85
-117,-125,-8,121,-54,-66,29,-60,-65,16,-68,-84
-117,-125,-8,121,-54,-66,30,-59,-64,16,-68,-84
-117,-126,-9,122,-54,-67,31,-57,-63,17,-67,-83
-118,-126,-8,122,-55,-67,32,-58,-63,17,-67,-83
-118,-126,-8,122,-55,-67,32,-58,-63,17,-67,-83
-117,-126,-9,122,-54,-67,33,-58,-62,17,-67,-83
-117,-125,-8,121,-54,-66,32,-58,-63,17,-67,-83
-117,-125,-8,121,-54,-66,33,-58,-62,17,-67,-83
-117,-125,-8,121,-54,-66,33,-57,-62,17,-67,-83
-116,-124,-8,120,-54,-66,34,-56,-61,18,-66,-82
-117,-124,-7,121,-55,-65,36,-54,-60,20,-66,-81
-116,-123,-7,120,-54,-65,37,-53,-58,20,-65,-81
-116,-121,-5,119,-55,-63,39,-50,-56,22,-64,-80
-115,-120,-5,118,-55,-62,39,-50,-55,23,-64,-80
-115,-119,-4,117,-55,-61,41,-49,-53,24,-62,-79
-114,-118,-4,116,-55,-61,40,-49,-53,24,-62,-79
-113,-117,-4,115,-54,-60,38,-50,-53,24,-62,-79
-112,-116,-4,114,-54,-60,37,-51,-54,24,-61,-78
-111,-115,-4,113,-53,-59,34,-54,-55,24,-61,-78
-111,-115,-4,113,-53,-59,33,-55,-56,23,-61,-78
-110,-116,-6,113,-52,-61,31,-56,-58,22,-62,-79
-111,-119,-8,115,-51,-63,29,-58,-60,21,-64,-80
-112,-121,-9,117,-51,-65,28,-59,-62,19,-65,-81
-113,-125,-12,119,-50,-68,27,-60,-63,18,-66,-82
-114,-128,-14,121,-50,-71,26,-62,-65,17,-68,-84
-115,-130,-15,123,-50,-72,24,-64,-67,16,-69,-84
-115,-130,-15,123,-50,-72,23,-65,-69,15,-69,-84
-114,-129,-15,122,-49,-72,23,-65,-69,16,-68,-83
-113,-129,-16,121,-48,-72,22,-67,-70,15,-68,-83
-114,-130,-16,122,-49,-73,23,-66,-70,16,-68,-82
-114,-130,-16,122,-49,-73,23,-66,-70,15,-68,-82
-114,-130,-16,122,-49,-73,23,-67,-70,15,-69,-82
-115,-131,-16,123,-49,-73,24,-66,-70,14,-69,-83
-115,-132,-17,124,-49,-74,23,-68,-71,13,-70,-84
-116,-132,-16,124,-50,-74,24,-68,-72,12,-72,-85
-116,-132,-16,124,-50,-74,24,-68,-72,11,-72,-86
-117,-132,-15,125,-51,-73,25,-68,-72,11,-72,-86
-118,-132,-14,125,-52,-73,25,-69,-74,10,-74,-88
-119,-133,-14,126,-52,-73,25,-69,-74,9,-75,-88
-121,-135,-14,128,-53,-74,25,-70,-76,8,-76,-89
-123,-136,-13,130,-55,-74,24,-70,-76,7,-77,-90
-124,-137,-13,131,-55,-75,24,-71,-77,7,-77,-90
-125,-138,-13,132,-56,-75,23,-72,-78,6,-78,-91
-125,-138,-13,132,-56,-75,23,-73,-78,5,-78,-91
-125,-137,-12,131,-56,-74,23,-73,-77,6,-78,-90
-125,-137,-12,131,-56,-74,23,-73,-76,6,-77,-90
-125,-137,-12,131,-56,-74,23,-73,-76,6,-76,-89
-125,-136,-11,131,-57,-73,23,-73,-76,7,-76,-89
-125,-136,-11,131,-57,-73,23,-73,-76,7,-76,-89
-124,-136,-12,130,-56,-74,22,-73,-77,6,-77,-90
-123,-136,-13,130,-55,-74,23,-73,-77,7,-76,-89
-122,-135,-13,129,-54,-74,22,-73,-77,6,-77,-89
-121,-135,-14,128,-53,-74,23,-73,-76,7,-76,-89
-120,-134,-14,127,-53,-74,22,-73,-77,6,-77,-90
-120,-134,-14,127,-53,-74,22,-73,-76,7,-76,-90
-120,-133,-13,127,-53,-73,22,-73,-76,7,-76,-89
-121,-133,-12,127,-54,-72,21,-74,-76,6,-76,-89
-122,-134,-12,128,-55,-73,22,-73,-76,7,-75,-88
-123,-134,-11,129,-56,-72,22,-73,-76,7,-75,-88
-124,-135,-11,130,-56,-73,22,-72,-76,8,-74,-88
-125,-135,-10,130,-57,-72,21,-73,-76,7,-75,-88
-126,-136,-10,131,-58,-73,22,-72,-76,8,-74,-88
-126,-136,-10,131,-58,-73,22,-72,-75,8,-74,-88
-126,-136,-10,131,-58,-73,22,-71,-75,8,-75,-88
-126,-136,-10,131,-58,-73,21,-71,-74,8,-75,-88
-126,-136,-10,131,-58,-73,21,-71,-74,8,-74,-88
-125,-135,-10,130,-57,-72,21,-72,-75,7,-75,-88
-125,-135,-10,130,-57,-72,21,-72,-74,7,-75,-88
-125,-135,-10,130,-57,-72,21,-71,-74,8,-75,-88
-125,-135,-10,130,-57,-72,23,-68,-73,8,-75,-89
-124,-136,-12,130,-56,-74,26,-65,-72,8,-76,-89
-123,-137,-14,130,-54,-75,29,-61,-70,7,-77,-91
-123,-138,-15,131,-54,-76,34,-55,-66,7,-78,-92
-123,-140,-17,132,-53,-78,38,-49,-64,5,-81,-94
-123,-142,-19,133,-52,-80,44,-42,-61,3,-83,-97
-124,-143,-19,134,-52,-81,49,-35,-57,2,-86,-99
-125,-144,-19,135,-53,-81,54,-27,-52,0,-88,-101
-125,-142,-17,134,-54,-79,59,-18,-45,1,-88,-101
-124,-139,-15,132,-54,-77,64,-7,-35,4,-86,-100
-121,-133,-12,127,-54,-72,69,7,-21,11,-82,-97
-117,-124,-7,121,-55,-65,75,25,0,23,-73,-90
-110,-113,-3,112,-53,-58,80,45,24,39,-62,-81
-102,-100,2,101,-52,-49,86,66,53,60,-47,-70
-95,-85,10,90,-52,-37,93,86,86,88,-27,-55
-86,-67,19,77,-52,-24,96,100,119,119,-5,-38
-79,-45,34,62,-56,-5,96,102,147,154,21,-18
-73,-20,53,47,-63,17,89,87,163,192,51,5
-68,6,74,31,-71,40,74,48,160,230,82,29
-66,33,99,17,-82,66,53,-11,142,271,115,57
-65,60,125,3,-95,93,19,-92,109,310,147,82
-67,85,152,-9,-109,119,-24,-184,71,351,180,109
-71,106,177,-17,-124,142,-71,-278,30,391,209,132
-76,115,191,-19,-133,153,-116,-362,-6,424,230,146
-81,110,191,-14,-136,151,-154,-424,-33,446,237,149
-87,91,178,-2,-132,135,-183,-466,-53,454,231,140
-93,64,157,15,-125,111,-205,-490,-73,444,212,122
-98,30,128,34,-113,79,-216,-494,-93,416,182,96
-104,-10,94,57,-99,42,-220,-483,-116,368,141,64
-112,-47,65,80,-88,9,-219,-468,-149,300,93,29
-121,-77,44,99,-82,-16,-216,-451,-189,220,46,-2
-130,-99,31,115,-80,-34,-208,-428,-224,140,3,-31
-138,-117,21,128,-79,-48,-194,-396,-246,70,-34,-56
-143,-130,13,137,-78,-58,-176,-360,-257,15,-63,-76
-146,-137,9,142,-77,-64,-156,-324,-256,-22,-83,-90
-146,-140,6,143,-76,-67,-133,-285,-240,-38,-93,-98
-144,-137,7,141,-75,-65,-112,-247,-211,-34,-94,-101
-140,-131,9,136,-74,-61,-94,-212,-178,-18,-87,-98
-135,-124,11,130,-73,-56,-79,-184,-150,-1,-79,-94
-131,-119,12,125,-71,-53,-62,-158,-124,13,-72,-89
-128,-114,14,121,-71,-50,-47,-136,-103,24,-66,-85
-125,-110,15,118,-70,-47,-34,-117,-84,33,-60,-81
-123,-108,15,116,-69,-46,-22,-101,-68,40,-56,-78
-121,-107,14,114,-67,-46,-11,-87,-55,44,-54,-76
-120,-108,12,114,-66,-48,-1,-75,-45,47,-52,-75
-119,-108,11,114,-65,-48,5,-67,-39,48,-52,-76
-118,-109,9,114,-63,-50,11,-60,-35,49,-52,-75
-117,-110,7,114,-62,-51,16,-53,-32,49,-51,-75
-116,-110,6,113,-61,-52,20,-48,-30,49,-51,-76
-115,-111,4,113,-59,-53,23,-45,-29,48,-52,-77
-115,-112,3,114,-59,-54,25,-42,-28,47,-53,-78
-114,-112,2,113,-58,-55,28,-39,-26,46,-54,-79
-114,-113,1,114,-57,-56,29,-37,-24,45,-54,-80
-115,-114,1,115,-58,-56,31,-35,-22,45,-54,-80
-116,-115,1,116,-58,-57,32,-33,-20,46,-54,-80
-117,-115,2,116,-59,-56,31,-33,-20,46,-54,-80
-117,-115,2,116,-59,-56,32,-32,-20,46,-54,-80
-118,-115,3,117,-60,-56,32,-31,-20,46,-54,-79
-119,-115,4,117,-61,-55,34,-29,-19,48,-53,-78
-118,-115,3,117,-60,-56,34,-28,-20,47,-54,-78
-117,-115,2,116,-59,-56,36,-26,-18,48,-54,-78
-116,-115,1,116,-58,-57,37,-24,-16,48,-53,-78
-115,-115,0,115,-57,-57,37,-23,-16,47,-54,-79
-114,-115,-1,115,-56,-58,38,-23,-14,47,-54,-79
-114,-115,-1,115,-56,-58,38,-22,-13,48,-54,-79
-114,-116,-2,115,-56,-59,38,-22,-13,49,-54,-79
-114,-115,-1,115,-56,-58,38,-22,-12,50,-53,-78
-114,-115,-1,115,-56,-58,39,-21,-12,51,-52,-78
-114,-115,-1,115,-56,-58,39,-20,-12,52,-52,-77
-115,-114,1,115,-58,-56,40,-18,-11,52,-51,-77
-115,-114,1,115,-58,-56,41,-17,-9,53,-51,-77
-115,-114,1,115,-58,-56,42,-16,-8,54,-51,-77
-114,-114,0,114,-57,-57,43,-14,-6,55,-50,-76
-114,-113,1,114,-57,-56,43,-14,-4,55,-50,-77
-114,-112,2,113,-58,-55,43,-14,-2,56,-50,-76
-114,-112,2,113,-58,-55,43,-13,-2,57,-49,-76
-114,-112,2,113,-58,-55,43,-12,-2,58,-48,-75
-114,-111,3,113,-58,-54,43,-12,-1,60,-47,-74
-115,-111,4,113,-59,-53,43,-11,0,61,-46,-73
-115,-111,4,113,-59,-53,44,-9,0,61,-46,-73
-114,-112,2,113,-58,-55,44,-8,1,62,-46,-74
-114,-112,2,113,-58,-55,45,-7,3,62,-46,-74
-113,-111,2,112,-57,-54,45,-6,5,62,-47,-74
-112,-111,1,112,-56,-55,45,-5,7,63,-46,-74
-112,-111,1,112,-56,-55,45,-5,8,63,-46,-74
-112,-110,2,111,-57,-54,45,-4,9,64,-45,-73
-112,-110,2,111,-57,-54,45,-3,10,66,-44,-72
-112,-109,3,111,-57,-53,44,-3,9,67,-44,-73
-112,-109,3,111,-57,-53,44,-2,10,68,-43,-72
-112,-108,4,110,-58,-52,45,0,11,69,-42,-72
-110,-108,2,109,-56,-53,45,1,12,69,-42,-72
-110,-108,2,109,-56,-53,46,2,14,70,-42,-72
-109,-108,1,109,-55,-53,47,3,16,71,-42,-72
-108,-108,0,108,-54,-54,48,5,19,72,-41,-72
-107,-107,0,107,-53,-53,47,5,20,73,-41,-72
-106,-105,1,106,-53,-52,47,6,21,74,-40,-71
-106,-104,2,105,-54,-51,47,8,22,76,-38,-70
-106,-103,3,105,-54,-50,47,8,23,76,-38,-69
-107,-103,4,105,-55,-49,48,11,25,79,-36,-68
-108,-103,5,106,-56,-49,48,12,25,79,-36,-68
-109,-104,5,107,-57,-49,49,14,27,80,-35,-68
-109,-105,4,107,-56,-50,50,15,29,81,-36,-69
-109,-105,4,107,-56,-50,50,16,30,81,-36,-69
-109,-105,4,107,-56,-50,50,17,32,82,-36,-69
-108,-104,4,106,-56,-50,50,17,34,83,-35,-69
-106,-103,3,105,-54,-50,50,19,36,85,-34,-68
-105,-101,4,103,-54,-48,50,20,37,87,-33,-67
-104,-100,4,102,-54,-48,50,22,39,89,-31,-66
-104,-99,5,102,-54,-47,49,23,39,90,-31,-66
-104,-99,5,102,-54,-47,50,25,41,92,-30,-66
-104,-99,5,102,-54,-47,50,27,43,93,-30,-66
-104,-99,5,102,-54,-47,51,28,45,94,-30,-66
-104,-100,4,102,-54,-48,52,31,48,96,-28,-65
-103,-99,4,101,-53,-47,52,32,51,97,-28,-65
-102,-98,4,100,-53,-47,52,34,53,99,-27,-65
-102,-97,5,100,-53,-46,53,36,56,102,-25,-63
-101,-95,6,98,-53,-44,53,37,57,104,-24,-62
-101,-94,7,98,-54,-43,53,39,59,106,-22,-61
-102,-93,9,98,-55,-42,54,42,61,109,-21,-61
-101,-92,9,97,-55,-41,54,44,62,111,-20,-60
-100,-91,9,96,-54,-41,55,46,65,113,-19,-60
-98,-91,7,95,-52,-42,56,49,68,115,-18,-59
-97,-90,7,94,-52,-41,56,51,71,117,-17,-59
-95,-90,5,93,-50,-42,56,53,74,119,-17,-59
-94,-89,5,92,-49,-42,57,56,78,123,-15,-57
-94,-88,6,91,-50,-41,56,58,80,125,-14,-56
-94,-87,7,91,-50,-40,56,60,82,129,-11,-54
-93,-86,7,90,-50,-39,56,62,84,132,-10,-53
-93,-84,9,89,-51,-37,57,66,88,136,-7,-51
-93,-83,10,88,-51,-36,58,69,91,139,-6,-50
-92,-82,10,87,-51,-36,59,74,96,143,-3,-48
-91,-80,11,86,-51,-34,60,77,100,147,-2,-47
-90,-79,11,85,-50,-34,61,81,105,150,0,-45
-88,-77,11,83,-49,-33,61,84,110,154,2,-44
-87,-76,11,82,-49,-32,61,87,114,158,5,-42
-86,-74,12,80,-49,-31,61,90,118,163,7,-39
-85,-71,14,78,-49,-28,62,93,122,168,11,-37
-84,-69,15,77,-49,-27,62,97,126,174,14,-35
-82,-67,15,75,-48,-26,61,100,129,178,16,-33
-81,-65,16,73,-48,-24,62,104,133,184,19,-31
-79,-63,16,71,-47,-23,63,108,138,189,22,-29
-77,-61,16,69,-46,-22,64,112,144,194,25,-26
-75,-59,16,67,-45,-21,63,115,149,199,28,-25
-74,-57,17,66,-45,-20,63,117,154,205,31,-22
-73,-55,18,64,-45,-18,63,120,159,210,34,-21
-72,-53,19,63,-45,-17,63,122,163,216,37,-18
-71,-51,20,61,-45,-15,62,126,168,222,42,-15
-70,-48,22,59,-46,-13,62,129,173,229,46,-12
-68,-45,23,57,-45,-11,61,131,176,235,49,-10
-66,-42,24,54,-45,-9,62,136,181,242,54,-6
-64,-38,26,51,-45,-6,62,139,187,248,58,-3
-62,-35,27,49,-44,-4,62,141,192,253,61,-1
-61,-33,28,47,-44,-2,61,143,197,258,64,2
"
		-60","
		-31","
		29","
		46","
		-44","
		-1","
		60","
		145","
		201","
		264","
		67","
		4"
-59,-29,30,44,-44,1,59,146,205,269,71,7
-59,-27,32,43,-45,3,58,147,209,275,75,10
-59,-25,34,42,-46,5,57,149,213,282,80,13
-58,-22,36,40,-47,7,56,150,215,287,83,16
-56,-18,38,37,-47,10,55,151,218,292,87,18
-54,-15,39,35,-46,12,55,153,222,298,91,22
-53,-13,40,33,-46,14,55,154,225,303,94,25
-52,-10,42,31,-47,16,53,154,227,306,96,26
-51,-8,43,30,-47,18,53,154,230,309,99,29
-50,-6,44,28,-47,19,52,153,232,312,102,31
-49,-4,45,27,-47,21,51,151,233,314,103,32
-49,-1,48,25,-48,24,49,149,233,316,105,34
-49,1,50,24,-49,26,48,147,233,318,108,37
-49,3,52,23,-50,28,46,143,230,318,109,37
-49,5,54,22,-51,30,44,139,227,316,108,37
-50,6,56,22,-53,31,44,135,224,314,108,38
-51,6,57,23,-54,32,44,132,220,311,107,38
-52,5,57,24,-54,31,42,125,214,305,104,36
-54,3,57,26,-55,30,42,120,210,300,102,36
-55,2,57,27,-56,30,41,113,202,291,98,33
-57,0,57,29,-57,29,41,107,195,284,96,32
-59,-2,57,31,-58,28,40,99,186,275,91,29
-62,-4,58,33,-60,27,40,92,177,266,87,27
-65,-7,58,36,-61,26,39,85,167,256,82,24
-67,-9,58,38,-62,25,39,78,156,245,76,20
-70,-13,57,42,-63,22,39,71,145,234,70,16
-73,-18,55,46,-64,19,39,64,135,223,64,12
-76,-22,54,49,-65,16,39,57,125,211,56,7
-78,-27,51,53,-64,12,39,50,115,200,50,3
-80,-31,49,56,-64,9,38,43,105,189,43,-2
-82,-36,46,59,-64,5,37,35,94,177,36,-7
-84,-41,43,63,-63,1,36,28,83,165,29,-12
-87,-46,41,67,-64,-2,36,22,74,156,24,-16
-89,-50,39,70,-64,-5,36,16,64,146,17,-20
-91,-55,36,73,-63,-9,35,10,54,136,11,-25
-94,-61,33,78,-63,-14,36,5,45,127,6,-29
-96,-66,30,81,-63,-18,36,1,38,119,1,-33
-98,-70,28,84,-63,-21,36,-3,30,110,-5,-37
-100,-75,25,88,-62,-25,37,-7,24,102,-10,-40
-101,-79,22,90,-61,-28,37,-11,18,95,-15,-44
-103,-82,21,93,-62,-30,35,-16,11,88,-20,-48
-104,-85,19,95,-61,-33,35,-19,5,82,-23,-50
-106,-88,18,97,-62,-35,35,-23,-1,76,-27,-53
-108,-91,17,100,-62,-37,35,-25,-6,72,-30,-55
-109,-93,16,101,-62,-38,35,-28,-11,68,-33,-57
-110,-96,14,103,-62,-41,35,-30,-16,63,-36,-60
-112,-100,12,106,-62,-44,36,-32,-19,60,-38,-61
-113,-103,10,108,-61,-46,37,-33,-21,57,-41,-63
-114,-106,8,110,-61,-49,37,-35,-24,53,-43,-64
-115,-108,7,112,-61,-50,37,-37,-27,50,-45,-66
-116,-110,6,113,-61,-52,36,-38,-29,48,-47,-67
-117,-111,6,114,-61,-52,36,-39,-31,46,-48,-67
-117,-112,5,115,-61,-53,35,-41,-33,45,-49,-68
-117,-112,5,115,-61,-53,35,-42,-35,43,-50,-69
-117,-112,5,115,-61,-53,36,-42,-36,42,-50,-69
-117,-113,4,115,-60,-54,36,-42,-37,41,-51,-70
-117,-114,3,116,-60,-55,37,-41,-38,40,-52,-70
-117,-116,1,117,-59,-57,36,-42,-40,37,-54,-72
-118,-117,1,118,-59,-58,37,-42,-40,36,-54,-72
-118,-118,0,118,-59,-59,37,-44,-40,35,-55,-73
-118,-119,-1,119,-58,-60,37,-44,-40,35,-55,-73
-118,-119,-1,119,-58,-60,37,-44,-41,35,-55,-73
-118,-119,-1,119,-58,-60,37,-45,-42,35,-56,-74
-119,-119,0,119,-59,-59,37,-45,-42,35,-56,-73
-119,-119,0,119,-59,-59,37,-45,-43,35,-56,-73
-119,-120,-1,120,-59,-60,37,-45,-43,35,-56,-74
-119,-120,-1,120,-59,-60,37,-45,-44,33,-58,-75
-119,-121,-2,120,-58,-61,38,-44,-43,34,-57,-74
-119,-121,-2,120,-58,-61,38,-43,-42,33,-57,-74
-119,-121,-2,120,-58,-61,38,-43,-41,33,-58,-74
-119,-120,-1,120,-59,-60,37,-44,-42,32,-58,-75
-119,-120,-1,120,-59,-60,37,-43,-42,32,-58,-75
-119,-120,-1,120,-59,-60,37,-43,-42,33,-58,-75
-120,-120,0,120,-60,-60,37,-43,-42,34,-57,-74
-121,-120,1,121,-61,-59,37,-43,-43,34,-57,-75
-121,-121,0,121,-60,-60,37,-42,-43,34,-57,-75
-121,-121,0,121,-60,-60,37,-42,-43,33,-58,-76
-121,-121,0,121,-60,-60,37,-41,-43,33,-58,-76
-120,-121,-1,121,-59,-61,38,-41,-41,34,-57,-76
-120,-121,-1,121,-59,-61,38,-40,-40,34,-57,-75
-119,-120,-1,120,-59,-60,37,-41,-40,33,-57,-75
-119,-119,0,119,-59,-59,37,-40,-40,34,-56,-74
-119,-118,1,119,-60,-58,37,-40,-40,35,-55,-74
-119,-119,0,119,-59,-59,37,-40,-40,35,-56,-74
-119,-119,0,119,-59,-59,37,-40,-40,35,-56,-74
-119,-119,0,119,-59,-59,37,-40,-40,35,-56,-74
-119,-120,-1,120,-59,-60,36,-40,-40,34,-56,-75
-120,-122,-2,121,-59,-62,36,-40,-40,34,-57,-76
-120,-123,-3,122,-58,-63,37,-39,-40,34,-57,-75
-120,-124,-4,122,-58,-64,36,-40,-40,33,-57,-76
-121,-124,-3,123,-59,-63,35,-41,-41,33,-58,-77
-122,-124,-2,123,-60,-63,35,-40,-41,33,-58,-77
-122,-123,-1,123,-60,-62,34,-42,-42,33,-58,-77
-122,-122,0,122,-61,-61,34,-41,-42,33,-58,-77
-121,-121,0,121,-60,-60,33,-42,-43,33,-58,-77
-121,-122,-1,122,-60,-61,34,-40,-42,34,-57,-76
-120,-124,-4,122,-58,-64,35,-40,-41,34,-57,-76
-119,-126,-7,123,-56,-66,35,-39,-41,34,-57,-76
-118,-126,-8,122,-55,-67,36,-39,-41,34,-57,-76
-117,-125,-8,121,-54,-66,35,-40,-42,33,-58,-77
-117,-123,-6,120,-55,-64,35,-40,-41,33,-57,-77
-117,-119,-2,118,-57,-60,34,-42,-44,31,-59,-78
-117,-115,2,116,-59,-56,32,-43,-45,30,-60,-79
-118,-112,6,115,-62,-53,31,-45,-47,29,-61,-80
-119,-112,7,116,-63,-52,32,-44,-46,29,-60,-79
-119,-114,5,117,-62,-54,32,-44,-46,29,-60,-79
-119,-116,3,118,-61,-56,34,-42,-45,30,-60,-79
-119,-118,1,119,-60,-58,35,-41,-44,31,-58,-77
-118,-120,-2,119,-58,-61,36,-41,-44,31,-58,-77
-118,-123,-5,121,-56,-64,37,-40,-42,32,-57,-76
-118,-123,-5,121,-56,-64,37,-40,-43,32,-57,-76
-118,-124,-6,121,-56,-65,37,-41,-44,31,-57,-76
-119,-124,-5,122,-57,-64,37,-41,-44,32,-57,-75
-120,-125,-5,123,-57,-65,37,-42,-45,31,-57,-76
-120,-126,-6,123,-57,-66,38,-42,-45,31,-57,-76
-120,-126,-6,123,-57,-66,37,-43,-46,30,-58,-76
-120,-125,-5,123,-57,-65,36,-44,-48,29,-59,-77
-120,-124,-4,122,-58,-64,36,-44,-47,29,-59,-77
-119,-123,-4,121,-57,-63,36,-45,-48,27,-60,-78
-119,-123,-4,121,-57,-63,35,-45,-48,27,-60,-78
-119,-124,-5,122,-57,-64,36,-45,-48,28,-60,-77
-120,-126,-6,123,-57,-66,36,-44,-47,28,-59,-76
-120,-131,-11,126,-54,-71,37,-44,-47,29,-58,-75
-120,-136,-16,128,-52,-76,39,-43,-46,31,-56,-74
-120,-138,-18,129,-51,-78,39,-43,-46,31,-56,-74
-120,-135,-15,128,-52,-75,38,-44,-48,30,-57,-75
-120,-129,-9,125,-55,-69,36,-46,-50,27,-59,-77
-121,-122,-1,122,-60,-61,35,-49,-52,25,-61,-80
-121,-117,4,119,-62,-56,33,-51,-54,22,-64,-82
-122,-115,7,119,-64,-54,32,-52,-55,22,-65,-82
-122,-115,7,119,-64,-54,32,-52,-55,21,-65,-82
-123,-120,3,122,-63,-58,34,-51,-53,23,-63,-80
-123,-126,-3,125,-60,-64,35,-49,-52,25,-61,-77
-123,-130,-7,127,-58,-68,36,-48,-51,26,-60,-76
-123,-130,-7,127,-58,-68,36,-48,-52,26,-60,-76
-123,-128,-5,126,-59,-66,36,-49,-53,25,-61,-76
-122,-126,-4,124,-59,-65,35,-50,-54,24,-62,-77
-122,-125,-3,124,-59,-64,35,-50,-55,23,-63,-78
-122,-125,-3,124,-59,-64,35,-51,-55,23,-63,-78
-122,-128,-6,125,-58,-67,36,-50,-54,23,-62,-77
-123,-131,-8,127,-57,-69,36,-50,-54,23,-62,-77
-123,-132,-9,128,-57,-70,36,-50,-54,23,-61,-76
-124,-133,-9,129,-57,-71,36,-51,-55,23,-61,-76
-124,-134,-10,129,-57,-72,37,-50,-55,24,-60,-75
-124,-134,-10,129,-57,-72,37,-50,-55,24,-60,-75
-124,-134,-10,129,-57,-72,37,-50,-55,24,-61,-75
-124,-134,-10,129,-57,-72,37,-50,-55,24,-61,-75
-124,-134,-10,129,-57,-72,37,-50,-55,24,-61,-75
-124,-135,-11,130,-56,-73,37,-50,-55,24,-62,-74
-123,-135,-12,129,-55,-73,38,-51,-55,24,-61,-74
-123,-133,-10,128,-56,-71,37,-52,-56,23,-62,-75
-121,-131,-10,126,-55,-70,37,-52,-56,23,-62,-75
-121,-129,-8,125,-56,-68,36,-52,-57,23,-62,-75
-120,-127,-7,124,-56,-67,36,-52,-58,23,-62,-74
-119,-126,-7,123,-56,-66,36,-52,-58,22,-62,-74
-119,-126,-7,123,-56,-66,36,-52,-58,23,-62,-74
-120,-127,-7,124,-56,-67,36,-51,-58,23,-63,-74
-121,-128,-7,125,-57,-67,36,-52,-58,22,-63,-74
-122,-130,-8,126,-57,-69,36,-52,-58,21,-64,-74
-123,-131,-8,127,-57,-69,35,-54,-59,20,-65,-75
-125,-132,-7,129,-59,-69,35,-54,-60,20,-65,-75
-125,-132,-7,129,-59,-69,34,-55,-60,20,-65,-75
-124,-130,-6,127,-59,-68,33,-56,-61,19,-66,-75
-124,-128,-4,126,-60,-66,33,-55,-61,20,-65,-74
-123,-128,-5,126,-59,-66,33,-55,-61,20,-65,-74
-123,-128,-5,126,-59,-66,33,-55,-61,20,-65,-74
-123,-128,-5,126,-59,-66,33,-55,-62,19,-66,-74
-124,-128,-4,126,-60,-66,34,-54,-61,20,-65,-74
-124,-129,-5,127,-59,-67,34,-54,-61,19,-66,-74
-125,-131,-6,128,-59,-68,34,-54,-61,19,-66,-74
-126,-131,-5,129,-60,-68,33,-55,-61,19,-66,-75
-126,-131,-5,129,-60,-68,33,-55,-61,19,-67,-75
-126,-130,-4,128,-61,-67,33,-55,-61,19,-66,-75
-125,-130,-5,128,-60,-67,33,-55,-61,20,-66,-74
-125,-130,-5,128,-60,-67,33,-54,-61,20,-66,-74
-125,-130,-5,128,-60,-67,34,-54,-61,21,-65,-74
-125,-130,-5,128,-60,-67,34,-53,-60,21,-65,-73
-124,-130,-6,127,-59,-68,34,-54,-61,20,-66,-74
-124,-130,-6,127,-59,-68,34,-54,-60,20,-66,-74
-124,-130,-6,127,-59,-68,35,-54,-60,20,-66,-74
-124,-129,-5,127,-59,-67,35,-54,-60,20,-66,-74
-124,-129,-5,127,-59,-67,35,-54,-60,20,-66,-74
-124,-129,-5,127,-59,-67,34,-54,-61,20,-66,-75
-124,-128,-4,126,-60,-66,34,-54,-62,20,-66,-75
-125,-129,-4,127,-60,-66,34,-55,-62,19,-66,-76
-125,-130,-5,128,-60,-67,34,-54,-62,20,-65,-76
-126,-130,-4,128,-61,-67,34,-54,-62,19,-66,-76
-126,-130,-4,128,-61,-67,34,-54,-62,19,-66,-77
-125,-131,-6,128,-59,-68,35,-54,-62,19,-66,-77
-125,-131,-6,128,-59,-68,35,-54,-62,19,-66,-77
-124,-130,-6,127,-59,-68,34,-55,-62,18,-67,-78
-124,-130,-6,127,-59,-68,34,-55,-62,18,-67,-78
-124,-129,-5,127,-59,-67,34,-55,-62,19,-67,-78
-124,-129,-5,127,-59,-67,34,-55,-63,19,-66,-78
-124,-128,-4,126,-60,-66,34,-55,-63,19,-66,-78
-125,-128,-3,127,-61,-65,34,-55,-63,19,-66,-79
-125,-129,-4,127,-60,-66,34,-56,-63,18,-67,-80
-125,-128,-3,127,-61,-65,34,-55,-63,18,-67,-80
-124,-128,-4,126,-60,-66,34,-55,-63,18,-67,-80
-125,-129,-4,127,-60,-66,34,-56,-63,18,-67,-80
-125,-129,-4,127,-60,-66,33,-56,-64,17,-68,-81
-125,-129,-4,127,-60,-66,33,-56,-64,17,-67,-81
-126,-128,-2,127,-62,-65,33,-56,-64,18,-67,-80
-127,-129,-2,128,-62,-65,33,-56,-63,18,-67,-80
-128,-129,-1,129,-63,-65,32,-56,-64,18,-67,-80
-128,-129,-1,129,-63,-65,32,-56,-64,17,-67,-80
-128,-129,-1,129,-63,-65,32,-56,-64,17,-67,-80
-128,-129,-1,129,-63,-65,33,-56,-64,17,-67,-80
-127,-129,-2,128,-62,-65,33,-56,-64,17,-67,-80
-125,-129,-4,127,-60,-66,32,-57,-64,16,-68,-81
-125,-129,-4,127,-60,-66,32,-57,-64,16,-68,-82
-126,-129,-3,128,-61,-66,32,-57,-64,17,-67,-81
-126,-130,-4,128,-61,-67,31,-57,-65,16,-68,-82
-127,-131,-4,129,-61,-67,32,-57,-64,17,-67,-81
-127,-132,-5,130,-61,-68,32,-57,-65,17,-67,-81
-128,-131,-3,130,-62,-67,32,-57,-65,17,-68,-82
-128,-130,-2,129,-63,-66,32,-57,-65,17,-68,-82
-128,-128,0,128,-64,-64,32,-57,-65,16,-69,-82
-127,-126,1,127,-64,-62,31,-57,-66,15,-70,-83
-128,-125,3,127,-65,-61,31,-57,-66,15,-70,-84
-128,-124,4,126,-66,-60,31,-57,-65,15,-70,-83
-127,-124,3,126,-65,-60,30,-58,-66,14,-71,-84
-127,-125,2,126,-64,-61,31,-57,-65,15,-69,-82
-126,-128,-2,127,-62,-65,31,-58,-66,15,-69,-82
-126,-130,-4,128,-61,-67,32,-57,-65,16,-68,-81
-126,-131,-5,129,-60,-68,32,-57,-65,16,-68,-80
-125,-132,-7,129,-59,-69,32,-57,-65,16,-68,-81
-125,-132,-7,129,-59,-69,32,-57,-65,16,-68,-81
-125,-132,-7,129,-59,-69,32,-57,-65,16,-68,-81
-124,-130,-6,127,-59,-68,32,-58,-65,15,-69,-82
-125,-129,-4,127,-60,-66,31,-58,-65,15,-69,-83
-126,-129,-3,128,-61,-66,32,-58,-65,16,-68,-82
-127,-130,-3,129,-62,-66,31,-59,-66,16,-68,-82
-127,-130,-3,129,-62,-66,30,-59,-67,15,-69,-83
-128,-131,-3,130,-62,-67,31,-59,-66,16,-68,-82
-129,-132,-3,131,-63,-67,31,-58,-66,17,-67,-81
-128,-132,-4,130,-62,-68,30,-58,-67,16,-68,-82
-128,-132,-4,130,-62,-68,31,-58,-66,16,-69,-82
-128,-132,-4,130,-62,-68,31,-58,-66,16,-69,-83
-128,-133,-5,131,-61,-69,32,-56,-64,17,-68,-82
-128,-134,-6,131,-61,-70,33,-56,-64,18,-67,-81
-127,-133,-6,130,-60,-69,32,-57,-64,17,-67,-81
-126,-131,-5,129,-60,-68,32,-57,-65,17,-68,-81
-125,-130,-5,128,-60,-67,32,-57,-65,17,-67,-81
-125,-129,-4,127,-60,-66,31,-58,-66,17,-68,-81
-125,-129,-4,127,-60,-66,30,-58,-66,16,-68,-82
-126,-129,-3,128,-61,-66,31,-58,-66,16,-68,-82
-127,-130,-3,129,-62,-66,30,-59,-67,15,-70,-83
-128,-131,-3,130,-62,-67,29,-59,-67,15,-70,-83
-129,-132,-3,131,-63,-67,29,-59,-66,15,-70,-83
-129,-133,-4,131,-62,-68,29,-59,-67,14,-70,-83
-129,-134,-5,132,-62,-69,29,-59,-67,14,-69,-83
-128,-133,-5,131,-61,-69,29,-59,-66,15,-69,-82
-128,-132,-4,130,-62,-68,29,-59,-67,15,-69,-82
-126,-130,-4,128,-61,-67,29,-59,-67,15,-69,-82
-125,-128,-3,127,-61,-65,29,-58,-67,15,-68,-82
-124,-127,-3,126,-60,-65,29,-59,-67,15,-69,-83
-124,-127,-3,126,-60,-65,29,-59,-67,14,-69,-83
-125,-128,-3,127,-61,-65,30,-58,-66,15,-69,-83
-126,-129,-3,128,-61,-66,30,-58,-66,15,-69,-83
-127,-131,-4,129,-61,-67,29,-58,-66,15,-69,-83
-129,-133,-4,131,-62,-68,28,-59,-66,15,-69,-83
-130,-134,-4,132,-63,-69,28,-58,-66,15,-69,-82
-130,-132,-2,131,-64,-67,27,-59,-67,14,-69,-83
-129,-130,-1,130,-64,-65,26,-60,-68,14,-70,-83
-129,-129,0,129,-64,-64,27,-60,-68,14,-70,-83
-129,-128,1,129,-65,-63,26,-60,-69,14,-70,-84
-128,-129,-1,129,-63,-65,27,-59,-68,14,-70,-84
-127,-130,-3,129,-62,-66,27,-59,-68,14,-70,-84
-127,-131,-4,129,-61,-67,28,-58,-66,15,-69,-83
-126,-131,-5,129,-60,-68,27,-60,-67,14,-70,-84
-126,-130,-4,128,-61,-67,27,-60,-67,15,-69,-83
-126,-130,-4,128,-61,-67,26,-60,-67,15,-69,-83
-126,-129,-3,128,-61,-66,26,-60,-67,15,-69,-83
-126,-129,-3,128,-61,-66,26,-60,-67,15,-68,-82
-126,-129,-3,128,-61,-66,27,-60,-67,16,-68,-82
-127,-130,-3,129,-62,-66,27,-60,-67,15,-69,-83
-128,-130,-2,129,-63,-66,28,-60,-66,16,-68,-82
-128,-129,-1,129,-63,-65,27,-61,-67,14,-70,-84
-128,-128,0,128,-64,-64,27,-62,-67,15,-70,-84
-128,-129,-1,129,-63,-65,27,-63,-67,15,-70,-83
-128,-130,-2,129,-63,-66,27,-62,-66,16,-69,-82
-128,-132,-4,130,-62,-68,27,-64,-67,16,-69,-83
-128,-135,-7,132,-60,-71,28,-63,-66,17,-67,-82
-128,-138,-10,133,-59,-74,29,-61,-65,18,-66,-80
-128,-139,-11,134,-58,-75,31,-60,-64,19,-65,-79
-128,-136,-8,132,-60,-72,30,-61,-65,18,-65,-80
-127,-133,-6,130,-60,-69,29,-62,-66,17,-67,-81
-126,-130,-4,128,-61,-67,29,-62,-67,16,-68,-82
-126,-129,-3,128,-61,-66,29,-63,-66,16,-68,-82
-126,-129,-3,128,-61,-66,29,-63,-66,16,-67,-82
-126,-129,-3,128,-61,-66,29,-63,-66,16,-67,-82
-126,-130,-4,128,-61,-67,28,-63,-66,16,-67,-82
-127,-131,-4,129,-61,-67,29,-63,-66,17,-66,-81
-127,-132,-5,130,-61,-68,29,-62,-66,17,-66,-81
-127,-132,-5,130,-61,-68,29,-62,-66,17,-66,-81
-127,-132,-5,130,-61,-68,29,-62,-66,16,-67,-82
-128,-131,-3,130,-62,-67,29,-62,-66,16,-67,-82
-128,-130,-2,129,-63,-66,29,-63,-66,15,-68,-83
"
		-129","
		-130","
		-1","
		130","
		-64","
		-65","
		29","
		-64","
		-66","
		15","
		-69","
		-83"
-129,-129,0,129,-64,-64,28,-65,-66,15,-69,-84
-129,-130,-1,130,-64,-65,28,-65,-67,15,-69,-84
-129,-131,-2,130,-63,-66,27,-66,-67,14,-69,-84
-129,-132,-3,131,-63,-67,28,-64,-66,16,-68,-83
-129,-132,-3,131,-63,-67,29,-64,-66,16,-67,-82
-129,-133,-4,131,-62,-68,29,-64,-67,16,-67,-82
-129,-133,-4,131,-62,-68,29,-63,-67,16,-67,-82
-129,-132,-3,131,-63,-67,30,-63,-66,17,-67,-82
-129,-129,0,129,-64,-64,29,-64,-67,16,-68,-83
-128,-129,-1,129,-63,-65,28,-65,-68,15,-69,-84
-129,-130,-1,130,-64,-65,29,-64,-67,15,-68,-84
-128,-130,-2,129,-63,-66,29,-64,-67,16,-68,-84
-128,-131,-3,130,-62,-67,29,-64,-67,16,-68,-84
-128,-132,-4,130,-62,-68,28,-64,-67,15,-68,-83
-129,-133,-4,131,-62,-68,29,-63,-66,17,-67,-82
-129,-133,-4,131,-62,-68,29,-63,-66,16,-67,-83
-129,-131,-2,130,-63,-66,28,-64,-67,15,-68,-84
-129,-129,0,129,-64,-64,28,-64,-67,15,-68,-84
-129,-128,1,129,-65,-63,27,-65,-68,14,-69,-85
-128,-128,0,128,-64,-64,27,-65,-67,14,-70,-85
-128,-128,0,128,-64,-64,27,-65,-67,14,-70,-86
-127,-130,-3,129,-62,-66,27,-65,-67,15,-69,-85
-127,-131,-4,129,-61,-67,28,-63,-65,16,-68,-84
-127,-131,-4,129,-61,-67,28,-63,-65,17,-67,-83
-127,-131,-4,129,-61,-67,28,-62,-66,17,-67,-83
-126,-131,-5,129,-60,-68,28,-63,-67,16,-68,-84
-126,-130,-4,128,-61,-67,28,-63,-67,16,-67,-84
-126,-130,-4,128,-61,-67,28,-63,-66,16,-67,-84
-126,-131,-5,129,-60,-68,29,-63,-66,16,-67,-84
-126,-131,-5,129,-60,-68,29,-63,-66,16,-67,-83
-125,-130,-5,128,-60,-67,29,-63,-66,16,-67,-83
-125,-129,-4,127,-60,-66,28,-64,-67,16,-68,-83
-126,-128,-2,127,-62,-65,28,-64,-67,16,-68,-83
-126,-128,-2,127,-62,-65,28,-64,-67,15,-68,-83
-126,-128,-2,127,-62,-65,27,-64,-68,15,-68,-83
-126,-128,-2,127,-62,-65,27,-64,-69,15,-68,-84
-127,-129,-2,128,-62,-65,27,-63,-68,15,-68,-83
-127,-129,-2,128,-62,-65,27,-64,-68,15,-68,-84
-128,-130,-2,129,-63,-66,28,-63,-67,15,-68,-84
-128,-130,-2,129,-63,-66,28,-64,-67,15,-68,-84
-128,-129,-1,129,-63,-65,27,-64,-67,14,-68,-85
-127,-128,-1,128,-63,-64,28,-63,-67,15,-67,-84
-127,-128,-1,128,-63,-64,28,-63,-66,15,-67,-83
-128,-128,0,128,-64,-64,27,-63,-67,15,-67,-83
-129,-129,0,129,-64,-64,27,-63,-67,16,-66,-83
-130,-129,1,130,-65,-64,27,-63,-67,16,-67,-83
-131,-130,1,131,-66,-64,28,-63,-67,16,-67,-83
-132,-130,2,131,-67,-64,27,-63,-68,15,-68,-83
-133,-129,4,131,-68,-62,27,-63,-68,15,-68,-84
-133,-129,4,131,-68,-62,27,-63,-67,15,-68,-83
-132,-129,3,131,-67,-63,28,-62,-66,16,-67,-83
-131,-128,3,130,-67,-62,27,-62,-66,16,-67,-83
-130,-127,3,129,-66,-62,27,-63,-67,16,-68,-83
-130,-127,3,129,-66,-62,27,-62,-66,17,-67,-82
-129,-127,2,128,-65,-62,28,-61,-66,17,-66,-81
-129,-126,3,128,-66,-61,28,-61,-65,18,-65,-80
-128,-125,3,127,-65,-61,28,-61,-66,18,-66,-81
-128,-125,3,127,-65,-61,28,-60,-65,18,-65,-81
-127,-125,2,126,-64,-61,29,-59,-64,19,-65,-80
-127,-124,3,126,-65,-60,29,-59,-64,18,-65,-81
-126,-124,2,125,-64,-61,29,-58,-63,19,-65,-80
-126,-123,3,125,-64,-60,30,-56,-62,20,-64,-79
-125,-121,4,123,-64,-58,31,-55,-61,21,-63,-79
-124,-120,4,122,-64,-58,31,-54,-61,21,-63,-78
-123,-119,4,121,-63,-57,31,-54,-61,21,-63,-78
-122,-119,3,121,-62,-58,32,-54,-60,21,-62,-77
-122,-120,2,121,-62,-59,32,-54,-60,21,-62,-77
-123,-121,2,122,-62,-59,34,-53,-60,22,-62,-77
-124,-123,1,124,-62,-61,35,-53,-59,22,-63,-78
-124,-124,0,124,-62,-62,34,-53,-60,21,-63,-79
-125,-125,0,125,-62,-62,36,-52,-58,22,-63,-78
-125,-124,1,125,-63,-61,36,-51,-58,22,-62,-78
-125,-122,3,124,-64,-59,36,-50,-57,23,-62,-78
-124,-120,4,122,-64,-58,37,-49,-56,24,-61,-77
-123,-119,4,121,-63,-57,37,-47,-55,25,-60,-76
-122,-118,4,120,-63,-57,39,-45,-53,27,-58,-74
-121,-117,4,119,-62,-56,39,-45,-52,27,-58,-74
-120,-117,3,119,-61,-57,39,-44,-52,27,-58,-74
-119,-117,2,118,-60,-57,37,-46,-53,26,-59,-75
-119,-118,1,119,-60,-58,36,-47,-52,27,-58,-73
-119,-118,1,119,-60,-58,33,-49,-54,26,-59,-74
-119,-119,0,119,-59,-59,31,-51,-55,25,-60,-74
-119,-119,0,119,-59,-59,28,-53,-57,24,-60,-75
-119,-120,-1,120,-59,-60,26,-55,-60,23,-61,-75
-119,-123,-4,121,-57,-63,25,-56,-61,22,-62,-76
-120,-126,-6,123,-57,-66,25,-56,-63,21,-62,-76
-120,-129,-9,125,-55,-69,24,-58,-65,20,-63,-77
-120,-131,-11,126,-54,-71,23,-60,-68,17,-65,-79
-121,-134,-13,128,-54,-73,23,-60,-68,18,-65,-78
-121,-135,-14,128,-53,-74,21,-62,-69,16,-66,-79
-121,-135,-14,128,-53,-74,21,-63,-70,16,-66,-79
-121,-134,-13,128,-54,-73,21,-63,-70,16,-65,-79
-120,-133,-13,127,-53,-73,21,-64,-70,16,-65,-79
-119,-131,-12,125,-53,-71,21,-64,-70,17,-65,-79
-119,-131,-12,125,-53,-71,21,-64,-70,17,-65,-79
-119,-132,-13,126,-53,-72,22,-64,-71,16,-66,-79
-120,-133,-13,127,-53,-73,23,-63,-70,16,-66,-79
-121,-135,-14,128,-53,-74,24,-63,-71,15,-67,-81
-124,-138,-14,131,-55,-76,25,-63,-71,14,-68,-82
-126,-140,-14,133,-56,-77,24,-64,-73,12,-70,-84
-128,-141,-13,135,-57,-77,24,-65,-73,11,-71,-85
-130,-142,-12,136,-59,-77,24,-66,-74,10,-72,-86
-131,-142,-11,137,-60,-76,24,-66,-74,11,-71,-86
-132,-141,-9,137,-61,-75,24,-67,-74,11,-71,-86
-132,-141,-9,137,-61,-75,24,-67,-74,12,-71,-85
-132,-140,-8,136,-62,-74,23,-67,-74,11,-71,-86
-132,-140,-8,136,-62,-74,24,-66,-73,12,-71,-85
-131,-140,-9,136,-61,-74,24,-66,-73,12,-70,-85
-131,-140,-9,136,-61,-74,25,-66,-72,13,-70,-84
-130,-139,-9,135,-60,-74,24,-66,-72,12,-70,-84
-129,-139,-10,134,-59,-74,25,-66,-72,13,-69,-84
-128,-138,-10,133,-59,-74,25,-67,-72,13,-69,-84
-128,-138,-10,133,-59,-74,25,-67,-72,13,-69,-84
-129,-138,-9,134,-60,-73,25,-67,-72,14,-68,-83
-129,-139,-10,134,-59,-74,24,-68,-73,13,-69,-84
-130,-140,-10,135,-60,-75,24,-67,-72,14,-69,-84
-130,-141,-11,136,-59,-76,24,-67,-73,13,-69,-84
-130,-142,-12,136,-59,-77,24,-67,-73,13,-69,-84
-130,-142,-12,136,-59,-77,24,-67,-72,13,-69,-84
-129,-141,-12,135,-58,-76,25,-66,-71,13,-68,-84
-129,-140,-11,135,-59,-75,25,-67,-72,13,-69,-84
-130,-140,-10,135,-60,-75,26,-66,-71,14,-68,-83
-130,-139,-9,135,-60,-74,25,-67,-72,13,-68,-84
-130,-139,-9,135,-60,-74,25,-67,-72,14,-69,-85
-131,-140,-9,136,-61,-74,25,-66,-71,14,-68,-84
-131,-140,-9,136,-61,-74,25,-66,-71,14,-68,-84
-131,-140,-9,136,-61,-74,26,-65,-70,15,-67,-83
-130,-140,-10,135,-60,-75,27,-64,-69,15,-67,-82
-130,-141,-11,136,-59,-76,28,-62,-68,15,-67,-82
-130,-141,-11,136,-59,-76,29,-61,-67,15,-68,-83
-130,-142,-12,136,-59,-77,30,-59,-66,14,-69,-84
-130,-144,-14,137,-58,-79,33,-55,-65,14,-69,-85
-131,-145,-14,138,-58,-79,37,-50,-63,14,-70,-87
-131,-147,-16,139,-57,-81,40,-45,-62,12,-73,-89
-131,-148,-17,140,-57,-82,46,-39,-59,10,-75,-92
-131,-150,-19,141,-56,-84,51,-32,-56,8,-78,-94
-130,-150,-20,140,-55,-85,56,-23,-51,7,-79,-96
-129,-149,-20,139,-54,-84,62,-14,-44,7,-80,-97
-128,-146,-18,137,-55,-82,68,-3,-35,10,-79,-97
-126,-142,-16,134,-55,-79,74,10,-22,15,-75,-94
-122,-134,-12,128,-55,-73,79,26,-5,24,-69,-90
-117,-124,-7,121,-55,-65,84,46,17,38,-59,-82
-110,-112,-2,111,-54,-57,91,67,43,58,-45,-72
-103,-98,5,101,-54,-46,97,87,73,81,-29,-59
-95,-82,13,89,-54,-34,102,105,106,110,-8,-43
-87,-62,25,75,-56,-18,102,114,137,143,15,-25
-80,-40,40,60,-60,0,100,110,160,180,44,-2
-75,-15,60,45,-67,23,90,82,167,218,75,23
-71,11,82,30,-76,47,72,30,157,257,107,49
-70,38,108,16,-89,73,42,-44,132,295,139,75
-71,65,136,3,-103,101,3,-134,97,336,172,102
-75,90,165,-7,-120,128,-44,-234,56,376,203,127
-79,107,186,-14,-132,147,-91,-327,19,413,230,147
-85,111,196,-13,-140,154,-134,-403,-11,442,244,156
-91,100,191,-4,-141,146,-168,-457,-34,455,243,152
-96,77,173,10,-134,125,-193,-489,-52,453,230,138
-101,47,148,27,-124,98,-208,-501,-69,434,206,117
-106,9,115,49,-110,62,-215,-494,-88,396,169,87
-112,-31,81,72,-96,25,-217,-478,-115,337,123,51
-119,-66,53,93,-86,-6,-216,-460,-151,263,74,16
-128,-92,36,110,-82,-28,-210,-439,-189,184,30,-14
-136,-112,24,124,-80,-44,-201,-410,-218,110,-11,-41
-142,-127,15,135,-78,-56,-186,-375,-236,47,-45,-65
-146,-137,9,142,-77,-64,-167,-338,-243,2,-68,-82
-148,-142,6,145,-77,-68,-145,-300,-237,-25,-83,-93
-147,-143,4,145,-75,-69,-122,-260,-215,-30,-88,-98
-144,-139,5,142,-74,-67,-101,-222,-183,-19,-84,-97
-140,-133,7,137,-73,-63,-84,-190,-153,-2,-76,-92
-136,-127,9,132,-72,-59,-67,-163,-127,13,-69,-87
-133,-122,11,128,-72,-55,-49,-138,-104,27,-61,-82
-130,-118,12,124,-71,-53,-35,-119,-85,35,-56,-79
-128,-114,14,121,-71,-50,-23,-102,-69,42,-51,-76
-126,-113,13,120,-69,-50,-12,-86,-56,48,-48,-73
-124,-112,12,118,-68,-50,-2,-74,-45,51,-46,-72
-123,-113,10,118,-66,-51,7,-63,-38,53,-45,-71
-122,-114,8,118,-65,-53,13,-55,-33,54,-45,-71
-122,-116,6,119,-64,-55,19,-48,-30,55,-45,-71
-121,-118,3,120,-62,-57,23,-43,-28,54,-45,-72
-120,-119,1,120,-60,-59,26,-38,-26,53,-46,-73
-119,-120,-1,120,-59,-60,29,-35,-25,52,-47,-73
-118,-120,-2,119,-58,-61,31,-33,-23,51,-48,-74
-118,-120,-2,119,-58,-61,32,-30,-22,50,-49,-75
-118,-121,-3,120,-57,-62,33,-29,-21,49,-50,-76
-118,-121,-3,120,-57,-62,33,-28,-20,48,-50,-76
-118,-121,-3,120,-57,-62,33,-27,-20,48,-51,-77
-119,-122,-3,121,-58,-62,34,-25,-19,49,-49,-76
-120,-122,-2,121,-59,-62,35,-24,-19,49,-49,-76
-120,-123,-3,122,-58,-63,37,-22,-18,50,-48,-74
-119,-122,-3,121,-58,-62,38,-20,-17,51,-48,-74
-119,-122,-3,121,-58,-62,40,-18,-15,52,-48,-73
-118,-122,-4,120,-57,-63,41,-16,-13,52,-48,-73
-118,-121,-3,120,-57,-62,41,-16,-13,51,-49,-74
-118,-121,-3,120,-57,-62,42,-15,-12,52,-48,-74
-117,-121,-4,119,-56,-62,42,-14,-10,52,-48,-73
-117,-120,-3,119,-57,-61,42,-14,-10,53,-48,-72
-117,-120,-3,119,-57,-61,42,-14,-10,54,-47,-72
-117,-120,-3,119,-57,-61,42,-12,-9,55,-46,-71
-117,-120,-3,119,-57,-61,43,-11,-8,56,-46,-70
-117,-121,-4,119,-56,-62,44,-10,-7,57,-45,-70
-117,-121,-4,119,-56,-62,44,-8,-6,57,-45,-70
-116,-121,-5,119,-55,-63,45,-7,-5,57,-45,-70
-117,-121,-4,119,-56,-62,45,-7,-4,56,-46,-70
-117,-121,-4,119,-56,-62,45,-7,-3,56,-46,-70
-116,-120,-4,118,-56,-62,43,-8,-3,56,-47,-71
-116,-119,-3,118,-56,-61,44,-7,-2,57,-46,-70
-116,-118,-2,117,-57,-60,44,-6,-1,59,-45,-69
-115,-117,-2,116,-56,-59,44,-6,-1,60,-44,-69
-115,-117,-2,116,-56,-59,45,-5,0,61,-43,-68
-115,-117,-2,116,-56,-59,46,-4,1,62,-42,-67
-115,-116,-1,116,-57,-58,47,-3,3,63,-42,-67
-115,-116,-1,116,-57,-58,47,-2,4,63,-42,-67
-115,-117,-2,116,-56,-59,47,-2,6,62,-42,-67
-115,-116,-1,116,-57,-58,47,-1,7,63,-42,-67
-114,-115,-1,115,-56,-58,47,-1,8,63,-42,-67
-113,-114,-1,114,-56,-57,46,-1,8,64,-42,-67
-113,-113,0,113,-56,-56,46,0,10,66,-40,-65
-113,-113,0,113,-56,-56,47,1,11,68,-38,-64
-113,-112,1,113,-57,-55,48,3,12,69,-37,-63
-113,-113,0,113,-56,-56,48,5,13,70,-37,-63
-114,-113,1,114,-57,-56,48,5,14,71,-37,-63
-114,-114,0,114,-57,-57,50,7,16,72,-36,-63
-114,-114,0,114,-57,-57,49,7,17,72,-36,-63
-114,-114,0,114,-57,-57,49,8,18,72,-36,-63
-115,-114,1,115,-58,-56,49,8,19,72,-37,-63
-115,-113,2,114,-58,-55,48,9,20,73,-36,-63
-115,-113,2,114,-58,-55,48,10,21,74,-35,-62
-114,-112,2,113,-58,-55,48,10,21,75,-35,-62
-114,-112,2,113,-58,-55,49,12,23,77,-34,-61
-114,-111,3,113,-58,-54,50,13,24,78,-33,-60
-113,-110,3,112,-58,-53,50,15,26,79,-33,-60
-112,-109,3,111,-57,-53,50,16,27,80,-33,-60
-111,-108,3,110,-57,-52,51,18,30,81,-31,-59
-110,-108,2,109,-56,-53,50,18,31,81,-32,-60
-110,-107,3,109,-56,-52,50,20,32,83,-31,-59
-110,-107,3,109,-56,-52,50,21,34,85,-30,-58
-110,-106,4,108,-57,-51,50,23,35,86,-29,-58
-110,-106,4,108,-57,-51,50,24,36,88,-28,-57
-111,-106,5,109,-58,-50,50,26,37,89,-27,-57
-111,-106,5,109,-58,-50,51,28,39,91,-26,-56
-110,-106,4,108,-57,-51,52,29,42,92,-25,-56
-110,-105,5,108,-57,-50,52,30,43,93,-26,-57
-109,-104,5,107,-57,-49,53,33,46,95,-25,-56
-108,-103,5,106,-56,-49,52,34,48,96,-24,-56
-107,-102,5,105,-56,-48,52,35,49,97,-24,-56
-107,-101,6,104,-56,-47,52,37,51,99,-22,-55
-106,-101,5,104,-55,-48,53,39,53,102,-21,-53
-106,-100,6,103,-56,-47,53,41,54,104,-19,-53
-105,-99,6,102,-55,-46,54,44,57,107,-18,-51
-104,-99,5,102,-54,-47,54,46,59,108,-17,-51
-103,-98,5,101,-54,-46,56,49,62,111,-15,-50
-103,-97,6,100,-54,-45,56,51,65,112,-15,-50
-102,-97,5,100,-53,-46,57,54,68,114,-14,-49
-102,-96,6,99,-54,-45,57,56,71,117,-12,-48
-101,-95,6,98,-53,-44,56,58,73,118,-12,-48
-101,-93,8,97,-54,-42,56,60,75,121,-11,-48
-100,-92,8,96,-54,-42,56,63,78,125,-8,-46
-99,-91,8,95,-53,-41,56,65,80,128,-6,-45
-97,-90,7,94,-52,-41,57,68,83,131,-5,-43
-96,-88,8,92,-52,-40,58,72,87,134,-3,-42
-94,-87,7,91,-50,-40,59,75,90,137,-1,-40
-93,-86,7,90,-50,-39,59,78,94,140,0,-39
-93,-85,8,89,-50,-38,60,81,98,144,2,-38
-92,-84,8,88,-50,-38,60,83,101,147,3,-37
-91,-82,9,87,-50,-36,59,86,105,150,5,-36
-91,-81,10,86,-50,-35,60,90,109,156,8,-34
-90,-79,11,85,-50,-34,60,92,112,159,10,-32
-89,-77,12,83,-50,-32,60,95,116,164,13,-30
-88,-75,13,82,-50,-31,61,100,121,169,16,-27
-86,-72,14,79,-50,-29,61,103,125,174,19,-25
-84,-70,14,77,-49,-28,62,107,130,179,22,-23
-83,-68,15,76,-49,-26,63,111,135,184,24,-22
-81,-66,15,74,-48,-25,63,115,140,189,27,-20
-80,-64,16,72,-48,-24,63,118,145,194,30,-18
-79,-63,16,71,-47,-23,63,120,149,200,33,-16
-77,-61,16,69,-46,-22,62,123,154,205,37,-13
-76,-58,18,67,-47,-20,61,125,157,210,40,-11
-75,-56,19,66,-47,-18,61,128,161,216,44,-8
-74,-53,21,64,-47,-16,61,132,166,222,48,-5
-72,-51,21,62,-46,-15,61,136,171,229,52,-1
-70,-48,22,59,-46,-13,61,138,175,234,55,1
-68,-45,23,57,-45,-11,61,141,180,239,58,2
-66,-43,23,55,-44,-10,60,143,184,244,62,5
-65,-40,25,53,-45,-7,60,146,189,250,65,8
-63,-38,25,51,-44,-6,58,146,192,255,68,10
-62,-35,27,49,-44,-4,57,148,196,261,72,13
-61,-32,29,47,-45,-1,57,151,200,267,76,17
-60,-30,30,45,-45,0,57,153,204,273,81,21
-58,-27,31,43,-44,2,56,155,208,278,85,24
-57,-24,33,41,-45,5,57,157,212,284,89,27
-55,-21,34,38,-44,7,56,158,215,289,92,29
-54,-19,35,37,-44,8,55,158,218,293,95,32
-53,-17,36,35,-44,10,54,158,220,296,97,33
-53,-15,38,34,-45,12,52,156,222,299,99,35
-52,-13,39,33,-45,13,50,154,223,302,101,36
-52,-11,41,32,-46,15,49,153,224,305,104,39
-51,-9,42,30,-46,17,48,151,224,307,106,41
-50,-7,43,29,-46,18,47,149,223,309,108,43
-50,-6,44,28,-47,19,46,147,222,309,109,44
-50,-4,46,27,-48,21,46,144,221,309,110,46
"
		-51","
		-4","
		47","
		28","
		-49","
		22","
		46","
		141","
		218","
		307","
		110","
		47"
-52,-3,49,28,-50,23,45,136,214,304,109,46
-53,-4,49,29,-51,23,44,130,210,300,108,46
-55,-4,51,30,-53,24,43,123,204,294,105,44
-57,-5,52,31,-54,24,41,117,198,288,102,43
-59,-7,52,33,-55,23,41,110,191,282,100,42
-61,-8,53,35,-57,23,39,103,182,274,96,40
-63,-10,53,37,-58,22,38,96,173,266,92,37
-66,-13,53,40,-59,20,38,90,164,257,88,34
-69,-17,52,43,-60,18,38,83,155,247,83,31
-72,-21,51,47,-61,15,38,77,146,237,77,27
-76,-26,50,51,-63,12,38,69,136,226,71,23
-79,-31,48,55,-63,9,36,61,125,213,63,17
-83,-37,46,60,-64,5,36,54,116,202,57,13
-86,-42,44,64,-65,1,34,45,105,190,49,7
-89,-47,42,68,-65,-2,34,38,95,179,43,3
-91,-52,39,72,-65,-6,34,31,84,168,36,-2
-93,-57,36,75,-64,-10,35,26,75,160,31,-5
-95,-61,34,78,-64,-13,35,21,66,150,25,-9
-97,-66,31,82,-64,-17,36,16,57,140,19,-14
-99,-70,29,85,-64,-20,36,11,48,131,13,-19
-101,-75,26,88,-63,-24,36,6,40,122,7,-23
-102,-79,23,91,-62,-28,36,1,34,113,2,-27
-103,-82,21,93,-62,-30,35,-4,26,105,-3,-31
-105,-86,19,96,-62,-33,35,-9,20,98,-7,-34
-107,-89,18,98,-62,-35,35,-12,14,92,-11,-37
-108,-93,15,101,-61,-39,35,-16,8,87,-15,-40
-110,-97,13,104,-61,-42,35,-19,3,82,-18,-42
-112,-101,11,107,-61,-45,35,-21,-2,77,-22,-44
-114,-104,10,109,-62,-47,35,-24,-7,72,-25,-47
-115,-107,8,111,-61,-49,36,-26,-10,68,-28,-49
-116,-109,7,113,-61,-51,36,-28,-13,64,-31,-51
-116,-112,4,114,-60,-54,36,-30,-16,61,-33,-53
-117,-113,4,115,-60,-54,35,-32,-20,56,-36,-56
-118,-115,3,117,-60,-56,34,-34,-23,54,-38,-57
-118,-117,1,118,-59,-58,34,-35,-25,51,-39,-57
-118,-118,0,118,-59,-59,34,-37,-28,49,-40,-59
-119,-119,0,119,-59,-59,35,-37,-29,48,-40,-58
-119,-120,-1,120,-59,-60,35,-38,-31,46,-42,-59
-120,-121,-1,121,-59,-61,35,-38,-32,45,-43,-60
-121,-123,-2,122,-59,-62,35,-39,-33,43,-44,-61
-121,-125,-4,123,-58,-64,35,-39,-33,42,-46,-62
-121,-126,-5,124,-58,-65,35,-40,-35,40,-48,-63
-121,-127,-6,124,-57,-66,34,-42,-37,38,-49,-65
-122,-128,-6,125,-58,-67,34,-42,-37,37,-50,-65
-122,-128,-6,125,-58,-67,33,-43,-38,36,-50,-66
-123,-128,-5,126,-59,-66,33,-43,-39,36,-50,-66
-123,-129,-6,126,-58,-67,34,-42,-39,37,-49,-65
-124,-129,-5,127,-59,-67,33,-43,-39,37,-50,-66
-124,-130,-6,127,-59,-68,33,-43,-40,36,-50,-66
-124,-130,-6,127,-59,-68,34,-42,-39,36,-51,-66
-124,-129,-5,127,-59,-67,35,-41,-39,37,-50,-66
-123,-128,-5,126,-59,-66,34,-41,-39,36,-51,-67
-122,-127,-5,125,-58,-66,35,-41,-38,36,-51,-66
-121,-126,-5,124,-58,-65,34,-41,-38,36,-51,-66
-121,-126,-5,124,-58,-65,34,-41,-38,36,-50,-66
-121,-126,-5,124,-58,-65,33,-41,-38,36,-51,-66
-122,-127,-5,125,-58,-66,33,-41,-38,36,-50,-65
-123,-128,-5,126,-59,-66,33,-41,-39,36,-51,-66
-123,-129,-6,126,-58,-67,33,-40,-39,36,-51,-65
-124,-130,-6,127,-59,-68,33,-41,-40,35,-52,-66
-124,-130,-6,127,-59,-68,32,-41,-40,35,-52,-67
-123,-130,-7,127,-58,-68,33,-41,-39,35,-52,-66
-122,-129,-7,126,-57,-68,33,-41,-39,34,-53,-67
-121,-129,-8,125,-56,-68,33,-41,-39,35,-52,-66
-120,-128,-8,124,-56,-68,32,-42,-39,35,-52,-66
-120,-127,-7,124,-56,-67,33,-41,-39,36,-51,-66
-120,-127,-7,124,-56,-67,33,-41,-39,36,-50,-65
-120,-127,-7,124,-56,-67,33,-41,-39,36,-50,-65
-120,-128,-8,124,-56,-68,32,-41,-39,35,-51,-66
-121,-129,-8,125,-56,-68,33,-40,-39,35,-51,-66
-122,-129,-7,126,-57,-68,32,-41,-40,34,-52,-67
-122,-130,-8,126,-57,-69,33,-40,-39,34,-52,-66
-122,-130,-8,126,-57,-69,33,-40,-39,34,-52,-67
-122,-129,-7,126,-57,-68,32,-41,-39,34,-53,-67
-122,-128,-6,125,-58,-67,32,-41,-39,34,-53,-67
-121,-128,-7,125,-57,-67,32,-40,-39,35,-52,-66
-121,-128,-7,125,-57,-67,32,-40,-39,36,-52,-66
-121,-128,-7,125,-57,-67,33,-40,-39,36,-51,-65
-121,-128,-7,125,-57,-67,33,-39,-39,36,-51,-65
-121,-128,-7,125,-57,-67,33,-39,-39,36,-51,-66
-121,-128,-7,125,-57,-67,33,-39,-39,35,-51,-66
-120,-128,-8,124,-56,-68,32,-40,-40,33,-53,-68
-120,-127,-7,124,-56,-67,32,-40,-40,33,-53,-68
-120,-126,-6,123,-57,-66,32,-40,-40,33,-53,-67
-120,-126,-6,123,-57,-66,32,-41,-40,33,-52,-67
-120,-126,-6,123,-57,-66,32,-41,-41,33,-52,-66
-120,-126,-6,123,-57,-66,32,-41,-41,33,-52,-66
-120,-126,-6,123,-57,-66,32,-40,-41,34,-52,-65
-120,-126,-6,123,-57,-66,33,-40,-42,34,-51,-65
-119,-126,-7,123,-56,-66,32,-41,-43,32,-53,-66
-119,-127,-8,123,-55,-67,33,-40,-42,33,-52,-65
-119,-127,-8,123,-55,-67,34,-40,-42,32,-52,-66
-118,-127,-9,123,-54,-68,32,-42,-43,31,-53,-67
-119,-128,-9,124,-55,-68,32,-42,-43,31,-53,-67
-119,-128,-9,124,-55,-68,31,-43,-45,30,-54,-68
-120,-129,-9,125,-55,-69,31,-43,-45,30,-53,-67
-121,-130,-9,126,-56,-69,30,-44,-46,30,-54,-68
-121,-130,-9,126,-56,-69,30,-44,-47,29,-54,-68
-121,-130,-9,126,-56,-69,30,-44,-47,29,-54,-68
-121,-130,-9,126,-56,-69,30,-44,-47,29,-54,-68
-120,-130,-10,125,-55,-70,31,-44,-47,29,-54,-68
-120,-129,-9,125,-55,-69,31,-44,-47,29,-54,-68
-119,-129,-10,124,-54,-69,30,-46,-48,27,-55,-69
-119,-129,-10,124,-54,-69,29,-47,-49,27,-56,-70
-120,-129,-9,125,-55,-69,30,-46,-49,27,-55,-69
-120,-130,-10,125,-55,-70,29,-47,-50,27,-56,-69
-120,-130,-10,125,-55,-70,29,-47,-51,27,-56,-70
-120,-130,-10,125,-55,-70,29,-47,-52,27,-56,-70
-120,-130,-10,125,-55,-70,30,-46,-52,27,-55,-70
-120,-129,-9,125,-55,-69,30,-46,-51,27,-55,-69
-119,-129,-10,124,-54,-69,30,-47,-52,26,-55,-70
-119,-129,-10,124,-54,-69,30,-47,-52,25,-56,-70
-120,-129,-9,125,-55,-69,31,-47,-51,25,-55,-69
-120,-130,-10,125,-55,-70,30,-48,-52,25,-56,-70
-120,-131,-11,126,-54,-71,29,-49,-53,24,-56,-70
-121,-131,-10,126,-55,-70,30,-49,-53,25,-56,-70
-121,-132,-11,127,-55,-71,29,-49,-55,25,-56,-70
-121,-132,-11,127,-55,-71,29,-50,-55,24,-57,-70
-121,-133,-12,127,-54,-72,29,-50,-56,24,-57,-70
-121,-133,-12,127,-54,-72,29,-50,-56,24,-57,-70
-121,-134,-13,128,-54,-73,30,-49,-55,24,-57,-70
-122,-135,-13,129,-54,-74,29,-50,-56,23,-58,-70
-122,-135,-13,129,-54,-74,28,-50,-56,23,-58,-71
-122,-135,-13,129,-54,-74,28,-51,-56,23,-58,-70
-122,-134,-12,128,-55,-73,28,-51,-56,23,-58,-70
-121,-134,-13,128,-54,-73,28,-51,-56,23,-57,-69
-121,-134,-13,128,-54,-73,28,-51,-56,24,-57,-68
-121,-134,-13,128,-54,-73,29,-51,-56,24,-56,-68
-120,-134,-14,127,-53,-74,29,-52,-57,24,-57,-69
-120,-134,-14,127,-53,-74,29,-51,-57,23,-57,-69
-120,-134,-14,127,-53,-74,30,-51,-56,23,-57,-69
-119,-134,-15,127,-52,-74,30,-51,-56,23,-57,-68
-119,-133,-14,126,-52,-73,31,-51,-56,23,-57,-68
-118,-132,-14,125,-52,-73,30,-52,-57,22,-58,-69
-118,-132,-14,125,-52,-73,29,-52,-57,22,-58,-69
-118,-133,-15,126,-51,-74,29,-53,-58,22,-58,-69
-120,-134,-14,127,-53,-74,29,-53,-59,22,-58,-69
-121,-135,-14,128,-53,-74,28,-54,-60,22,-58,-69
-122,-137,-15,130,-53,-76,28,-54,-60,21,-58,-69
-123,-137,-14,130,-54,-75,28,-55,-61,21,-59,-69
-123,-138,-15,131,-54,-76,29,-54,-60,21,-59,-69
-123,-138,-15,131,-54,-76,29,-54,-60,21,-59,-69
-122,-138,-16,130,-53,-77,29,-55,-61,20,-60,-70
-121,-137,-16,129,-52,-76,29,-55,-60,20,-60,-69
-121,-136,-15,129,-53,-75,28,-56,-61,20,-60,-69
-121,-136,-15,129,-53,-75,28,-56,-61,20,-60,-70
-121,-136,-15,129,-53,-75,28,-56,-61,20,-60,-70
-121,-136,-15,129,-53,-75,28,-56,-62,20,-59,-70
-121,-136,-15,129,-53,-75,28,-56,-61,21,-59,-69
-121,-136,-15,129,-53,-75,29,-56,-61,21,-59,-69
-121,-136,-15,129,-53,-75,29,-56,-61,20,-59,-70
-121,-136,-15,129,-53,-75,29,-56,-61,20,-60,-70
-121,-136,-15,129,-53,-75,30,-56,-60,20,-59,-70
-121,-135,-14,128,-53,-74,30,-56,-60,20,-60,-70
