I,II,III,aVR,aVL,aVF,V1,V2,V3,V4,V5,V6
5,67,62,-36,-28,65,-64,-178,-115,104,-160,-184
5,68,63,-36,-29,66,-64,-177,-114,104,-159,-182
6,69,63,-37,-28,66,-64,-178,-114,103,-159,-183
5,69,64,-37,-29,67,-63,-177,-114,104,-159,-183
5,68,63,-36,-29,66,-63,-178,-114,104,-159,-183
5,67,62,-36,-28,65,-62,-178,-114,104,-160,-184
5,67,62,-36,-28,65,-60,-178,-114,104,-160,-184
5,68,63,-36,-29,66,-60,-178,-114,104,-160,-184
5,68,63,-36,-29,66,-61,-178,-114,104,-160,-184
5,68,63,-36,-29,66,-62,-179,-114,104,-160,-184
5,68,63,-36,-29,66,-62,-179,-114,103,-160,-184
5,67,62,-36,-28,65,-63,-180,-115,102,-161,-184
4,66,62,-35,-29,64,-61,-179,-114,102,-160,-184
5,67,62,-36,-28,65,-61,-180,-115,102,-160,-185
5,68,63,-36,-29,66,-61,-179,-114,103,-158,-184
5,69,64,-37,-29,67,-62,-179,-115,103,-159,-183
6,69,63,-37,-28,66,-63,-179,-116,102,-160,-183
6,69,63,-37,-28,66,-63,-178,-116,103,-159,-182
5,68,63,-36,-29,66,-63,-178,-115,104,-158,-182
4,66,62,-35,-29,64,-64,-179,-115,104,-159,-183
4,66,62,-35,-29,64,-64,-179,-115,103,-160,-183
5,66,61,-35,-28,64,-61,-178,-114,103,-159,-182
5,66,61,-35,-28,64,-59,-178,-114,104,-158,-181
5,66,61,-35,-28,64,-60,-178,-114,103,-159,-182
6,66,60,-36,-27,63,-61,-179,-115,102,-161,-183
6,68,62,-37,-28,65,-61,-178,-114,103,-160,-182
7,69,62,-38,-27,66,-62,-180,-115,103,-160,-183
6,69,63,-37,-28,66,-62,-180,-115,103,-160,-184
6,68,62,-37,-28,65,-61,-178,-115,104,-159,-183
6,68,62,-37,-28,65,-61,-178,-115,104,-159,-183
6,69,63,-37,-28,66,-61,-179,-116,103,-159,-184
5,68,63,-36,-29,66,-60,-178,-115,104,-159,-184
5,67,62,-36,-28,65,-59,-178,-115,103,-160,-185
6,67,61,-36,-27,64,-59,-178,-115,104,-160,-185
6,68,62,-37,-28,65,-59,-178,-115,104,-159,-184
6,68,62,-37,-28,65,-59,-178,-115,105,-159,-184
6,68,62,-37,-28,65,-58,-177,-115,105,-160,-183
6,68,62,-37,-28,65,-58,-177,-115,105,-160,-183
6,68,62,-37,-28,65,-58,-177,-115,105,-160,-183
6,68,62,-37,-28,65,-58,-177,-115,105,-159,-182
6,68,62,-37,-28,65,-58,-177,-115,105,-159,-181
7,67,60,-37,-26,64,-58,-177,-115,105,-159,-181
8,67,59,-37,-25,63,-59,-178,-115,105,-159,-182
9,68,59,-38,-25,64,-58,-178,-114,105,-158,-182
9,69,60,-39,-25,65,-58,-178,-115,104,-159,-183
9,69,60,-39,-25,65,-58,-178,-115,104,-160,-183
8,69,61,-38,-26,65,-59,-177,-115,105,-159,-182
8,68,60,-38,-26,64,-60,-178,-116,105,-159,-182
7,67,60,-37,-26,64,-60,-177,-116,105,-159,-182
7,67,60,-37,-26,64,-59,-177,-116,105,-159,-181
8,68,60,-38,-26,64,-58,-178,-116,104,-160,-182
8,68,60,-38,-26,64,-58,-178,-117,104,-160,-181
7,67,60,-37,-26,64,-58,-178,-116,104,-160,-182
5,67,62,-36,-28,65,-58,-179,-117,103,-161,-183
4,66,62,-35,-29,64,-57,-178,-116,104,-159,-182
5,66,61,-35,-28,64,-57,-177,-116,104,-159,-182
7,68,61,-37,-27,65,-58,-179,-117,103,-161,-183
8,70,62,-39,-27,66,-58,-180,-118,103,-161,-183
9,71,62,-40,-26,67,-57,-179,-117,104,-160,-182
9,71,62,-40,-26,67,-57,-178,-117,104,-160,-181
8,70,62,-39,-27,66,-58,-178,-117,104,-160,-182
7,68,61,-37,-27,65,-57,-179,-117,104,-159,-182
8,68,60,-38,-26,64,-56,-178,-117,104,-159,-182
8,69,61,-38,-26,65,-55,-177,-116,105,-159,-181
8,71,63,-39,-27,67,-54,-177,-116,105,-159,-181
8,72,64,-40,-28,68,-54,-176,-115,106,-158,-180
9,74,65,-41,-28,70,-55,-176,-115,106,-158,-181
9,75,66,-42,-28,71,-56,-176,-115,105,-158,-181
10,75,65,-42,-27,70,-56,-175,-114,106,-157,-181
10,74,64,-42,-27,69,-55,-175,-113,106,-157,-180
10,76,66,-43,-28,71,-54,-174,-113,107,-156,-180
11,78,67,-44,-28,73,-54,-174,-112,108,-156,-179
12,79,67,-45,-27,73,-54,-173,-111,108,-155,-179
13,79,66,-46,-26,73,-53,-172,-110,109,-155,-179
13,79,66,-46,-26,73,-51,-172,-110,109,-155,-179
12,79,67,-45,-27,73,-50,-172,-111,109,-155,-179
11,79,68,-45,-28,74,-49,-172,-111,108,-155,-179
12,79,67,-45,-27,73,-48,-172,-112,108,-155,-179
12,79,67,-45,-27,73,-46,-170,-111,108,-154,-178
11,79,68,-45,-28,74,-45,-170,-111,109,-154,-178
11,79,68,-45,-28,74,-44,-169,-110,109,-154,-178
11,80,69,-45,-29,75,-44,-168,-109,110,-155,-178
12,80,68,-46,-28,74,-44,-167,-108,111,-154,-178
12,79,67,-45,-27,73,-44,-166,-108,111,-154,-178
15,78,63,-46,-24,71,-45,-166,-108,111,-155,-179
17,77,60,-47,-21,69,-47,-165,-106,113,-154,-177
19,80,61,-49,-21,71,-52,-166,-105,114,-153,-177
20,83,63,-51,-21,73,-57,-168,-105,115,-151,-174
20,87,67,-53,-23,77,-62,-173,-106,116,-149,-172
20,90,70,-55,-25,80,-65,-177,-106,117,-147,-170
21,93,72,-57,-25,83,-66,-178,-106,117,-147,-170
21,93,72,-57,-25,83,-65,-175,-104,118,-145,-169
22,92,70,-57,-24,81,-66,-175,-104,119,-145,-170
21,90,69,-55,-24,80,-65,-175,-104,118,-146,-171
21,88,67,-54,-23,78,-65,-175,-105,117,-148,-172
20,87,67,-53,-23,77,-65,-176,-107,116,-148,-172
19,87,68,-53,-24,78,-65,-178,-110,114,-149,-173
17,86,69,-51,-26,78,-63,-179,-110,113,-149,-172
16,86,70,-51,-27,78,-61,-179,-111,112,-150,-172
16,84,68,-50,-26,76,-58,-178,-111,113,-150,-172
16,83,67,-49,-25,75,-57,-178,-112,112,-151,-174
16,80,64,-48,-24,72,-58,-178,-112,112,-152,-175
15,78,63,-46,-24,71,-59,-178,-112,111,-153,-176
15,78,63,-46,-24,71,-59,-180,-113,110,-155,-178
15,78,63,-46,-24,71,-59,-180,-114,110,-155,-178
16,79,63,-47,-23,71,-57,-180,-113,111,-154,-177
16,80,64,-48,-24,72,-57,-181,-114,110,-154,-177
16,80,64,-48,-24,72,-58,-181,-115,110,-154,-177
15,79,64,-47,-24,72,-58,-180,-114,111,-153,-176
14,78,64,-46,-25,71,-57,-179,-113,111,-152,-175
13,76,63,-44,-25,70,-55,-178,-112,111,-151,-175
12,74,62,-43,-25,68,-55,-178,-114,109,-154,-176
11,71,60,-41,-24,66,-56,-179,-115,107,-156,-178
9,71,62,-40,-26,67,-54,-179,-115,107,-157,-179
7,70,63,-38,-28,67,-52,-177,-114,107,-157,-179
6,69,63,-37,-28,66,-53,-179,-116,105,-159,-180
6,68,62,-37,-28,65,-53,-179,-117,104,-161,-181
5,67,62,-36,-28,65,-53,-180,-118,102,-162,-183
5,66,61,-35,-28,64,-53,-180,-119,102,-162,-184
4,64,60,-34,-28,62,-53,-180,-120,102,-162,-184
5,63,58,-34,-26,61,-53,-181,-122,100,-163,-185
6,63,57,-34,-25,60,-54,-183,-123,99,-164,-186
6,63,57,-34,-25,60,-55,-183,-122,99,-164,-186
5,64,59,-34,-27,62,-54,-183,-122,99,-164,-186
5,65,60,-35,-27,63,-54,-183,-122,99,-164,-186
5,65,60,-35,-27,63,-54,-182,-122,99,-164,-186
5,64,59,-34,-27,62,-55,-182,-123,100,-164,-186
4,64,60,-34,-28,62,-54,-181,-123,100,-164,-185
4,63,59,-33,-27,61,-54,-181,-123,99,-164,-185
4,63,59,-33,-27,61,-54,-180,-123,99,-163,-184
5,64,59,-34,-27,62,-54,-180,-123,99,-163,-184
5,64,59,-34,-27,62,-54,-180,-123,100,-164,-183
4,64,60,-34,-28,62,-54,-181,-123,99,-164,-184
3,63,60,-33,-28,62,-54,-182,-123,99,-165,-185
4,63,59,-33,-27,61,-55,-182,-123,100,-165,-186
5,63,58,-34,-26,61,-56,-181,-123,100,-164,-186
4,64,60,-34,-28,62,-57,-181,-123,100,-164,-186
4,64,60,-34,-28,62,-56,-180,-122,100,-164,-185
4,65,61,-34,-28,63,-55,-181,-123,98,-165,-186
4,65,61,-34,-28,63,-55,-181,-124,98,-165,-186
4,65,61,-34,-28,63,-55,-181,-124,98,-165,-185
4,64,60,-34,-28,62,-55,-181,-124,99,-163,-184
4,63,59,-33,-27,61,-55,-181,-124,98,-163,-185
4,64,60,-34,-28,62,-55,-181,-124,98,-163,-185
4,64,60,-34,-28,62,-56,-181,-124,99,-163,-185
5,65,60,-35,-27,63,-56,-181,-124,99,-164,-186
5,65,60,-35,-27,63,-56,-181,-124,99,-165,-186
5,65,60,-35,-27,63,-56,-180,-123,99,-165,-185
4,65,61,-34,-28,63,-56,-180,-124,98,-165,-185
3,64,61,-33,-29,63,-55,-179,-124,98,-165,-184
3,63,60,-33,-28,62,-55,-180,-124,98,-166,-185
3,63,60,-33,-28,62,-55,-180,-124,98,-167,-185
3,63,60,-33,-28,62,-54,-180,-124,99,-167,-185
4,63,59,-33,-27,61,-53,-179,-122,100,-166,-185
4,64,60,-34,-28,62,-52,-179,-121,101,-165,-184
5,65,60,-35,-27,63,-53,-180,-121,101,-165,-185
5,66,61,-35,-28,64,-54,-178,-121,101,-165,-185
6,65,59,-35,-26,62,-54,-176,-121,100,-166,-186
6,62,56,-34,-25,59,-52,-171,-121,99,-168,-188
5,56,51,-30,-23,54,-46,-160,-119,97,-173,-193
5,49,44,-27,-19,47,-38,-146,-115,94,-179,-198
8,40,32,-24,-12,36,-32,-131,-111,91,-186,-205
8,30,22,-19,-7,26,-24,-116,-106,87,-195,-212
7,20,13,-13,-3,17,-16,-101,-100,82,-204,-221
6,15,9,-10,-1,12,-8,-88,-91,79,-210,-227
7,16,9,-11,-1,13,-6,-80,-79,81,-211,-227
10,23,13,-16,-1,18,-8,-79,-62,88,-205,-223
16,39,23,-27,-3,31,-14,-78,-36,105,-190,-213
26,62,36,-44,-5,49,-27,-81,-7,131,-169,-196
39,89,50,-64,-5,70,-44,-85,22,165,-141,-173
52,119,67,-85,-7,93,-64,-90,50,205,-109,-147
66,153,87,-109,-10,120,-81,-94,77,249,-73,-118
77,188,111,-132,-17,150,-94,-101,107,300,-32,-88
84,224,140,-154,-28,182,-106,-126,125,354,10,-54
86,264,178,-175,-46,221,-122,-182,106,400,52,-19
82,310,228,-196,-73,269,-142,-278,42,438,101,22
70,365,295,-217,-112,330,-165,-411,-48,482,159,71
52,421,369,-236,-158,395,-181,-548,-123,536,219,122
35,462,427,-248,-196,445,-195,-652,-163,592,265,159
25,488,463,-256,-219,476,-213,-723,-180,645,296,183
20,502,482,-261,-231,492,-227,-772,-187,694,319,201
15,501,486,-258,-235,494,-226,-797,-191,739,327,206
10,482,472,-246,-231,477,-213,-801,-200,766,314,194
6,449,443,-227,-218,446,-200,-789,-223,754,282,171
0,411,411,-205,-205,411,-191,-770,-262,685,234,138
-13,371,384,-179,-198,378,-177,-748,-310,565,180,103
-27,320,347,-146,-187,334,-158,-719,-358,410,116,61
-37,253,290,-108,-163,272,-141,-673,-400,235,36,5
-44,184,228,-70,-136,206,-133,-620,-433,75,-43,-51
-49,138,187,-44,-118,163,-145,-588,-451,-30,-102,-94
-53,115,168,-31,-110,142,-170,-570,-437,-59,-134,-120
-55,101,156,-23,-105,129,-199,-551,-405,-42,-150,-138
-56,91,147,-17,-101,119,-220,-532,-376,-22,-161,-152
-58,83,141,-12,-99,112,-225,-512,-354,-8,-167,-162
-56,77,133,-10,-94,105,-220,-484,-328,6,-171,-172
-51,74,125,-11,-88,100,-211,-447,-298,23,-174,-178
-44,75,119,-15,-81,97,-199,-407,-269,39,-175,-182
-36,77,113,-20,-74,95,-178,-367,-241,53,-173,-184
-28,79,107,-25,-67,93,-156,-332,-215,66,-171,-185
-21,81,102,-30,-61,92,-135,-300,-191,79,-166,-183
-13,82,95,-34,-54,89,-115,-271,-171,90,-161,-180
-8,82,90,-37,-49,86,-98,-245,-153,100,-157,-178
-5,81,86,-38,-45,84,-86,-226,-141,105,-156,-177
-2,81,83,-39,-42,82,-78,-212,-133,108,-155,-176
0,79,79,-39,-39,79,-73,-202,-126,110,-153,-175
1,77,76,-39,-37,77,-69,-197,-123,111,-155,-176
1,74,73,-37,-36,74,-65,-191,-119,111,-156,-177
2,72,70,-37,-34,71,-61,-186,-115,110,-157,-179
3,70,67,-36,-32,69,-59,-183,-112,109,-159,-180
3,68,65,-35,-31,67,-55,-179,-108,111,-160,-181
3,67,64,-35,-30,66,-53,-176,-106,110,-161,-182
3,66,63,-34,-30,65,-51,-173,-105,110,-161,-183
3,65,62,-34,-29,64,-49,-170,-103,112,-161,-183
2,64,62,-33,-30,63,-48,-168,-103,112,-161,-183
3,65,62,-34,-29,64,-47,-165,-102,113,-160,-182
4,66,62,-35,-29,64,-47,-162,-102,115,-160,-181
4,66,62,-35,-29,64,-47,-161,-100,114,-161,-182
5,65,60,-35,-27,63,-47,-161,-99,113,-162,-183
6,64,58,-35,-26,61,-47,-160,-98,113,-163,-184
7,64,57,-35,-25,61,-46,-159,-96,113,-163,-184
7,64,57,-35,-25,61,-45,-158,-95,114,-163,-184
7,65,58,-36,-25,62,-45,-157,-95,114,-163,-185
7,66,59,-36,-26,63,-44,-156,-95,116,-162,-184
7,67,60,-37,-26,64,-43,-154,-94,117,-161,-184
6,67,61,-36,-27,64,-43,-153,-94,117,-160,-183
6,67,61,-36,-27,64,-44,-153,-94,117,-161,-183
6,66,60,-36,-27,63,-46,-152,-94,117,-162,-183
6,66,60,-36,-27,63,-46,-152,-93,117,-162,-184
7,65,58,-36,-25,62,-45,-151,-91,118,-162,-185
8,64,56,-36,-24,60,-44,-151,-90,118,-162,-185
8,64,56,-36,-24,60,-43,-151,-89,118,-162,-186
7,64,57,-35,-25,61,-42,-149,-88,119,-161,-185
6,64,58,-35,-26,61,-42,-149,-88,120,-160,-184
7,65,58,-36,-25,62,-43,-149,-88,121,-161,-183
7,66,59,-36,-26,63,-43,-148,-88,122,-160,-181
8,67,59,-37,-25,63,-44,-148,-89,121,-161,-181
8,67,59,-37,-25,63,-44,-147,-89,121,-161,-182
9,66,57,-37,-24,62,-45,-147,-88,121,-161,-182
9,65,56,-37,-23,61,-44,-147,-87,121,-161,-182
10,64,54,-37,-22,59,-44,-146,-85,122,-161,-182
11,65,54,-38,-21,60,-44,-147,-84,123,-161,-183
10,65,55,-37,-22,60,-45,-147,-84,123,-161,-183
9,64,55,-36,-23,60,-44,-147,-84,125,-160,-182
8,64,56,-36,-24,60,-44,-147,-85,125,-159,-182
8,65,57,-36,-24,61,-44,-147,-85,126,-158,-181
8,66,58,-37,-25,62,-44,-146,-85,127,-158,-180
9,67,58,-38,-24,63,-45,-146,-85,127,-159,-180
11,67,56,-39,-22,62,-47,-147,-85,126,-160,-180
11,67,56,-39,-22,62,-47,-147,-84,126,-160,-180
11,65,54,-38,-21,60,-46,-146,-82,126,-160,-180
11,65,54,-38,-21,60,-45,-146,-82,126,-160,-181
10,66,56,-38,-23,61,-44,-146,-82,126,-160,-182
10,67,57,-38,-23,62,-44,-146,-82,127,-160,-181
10,68,58,-39,-24,63,-46,-147,-83,127,-160,-181
10,69,59,-39,-24,64,-47,-146,-83,128,-159,-180
10,69,59,-39,-24,64,-48,-145,-82,128,-159,-179
11,69,58,-40,-23,64,-49,-144,-82,128,-159,-179
11,68,57,-39,-23,63,-49,-145,-82,127,-159,-179
12,67,55,-39,-21,61,-50,-146,-81,127,-159,-180
12,66,54,-39,-21,60,-49,-147,-81,127,-160,-180
12,67,55,-39,-21,61,-48,-147,-80,127,-160,-180
13,68,55,-40,-21,62,-48,-146,-80,129,-159,-180
14,69,55,-41,-20,62,-47,-144,-79,131,-156,-178
13,69,56,-41,-21,63,-48,-145,-80,130,-156,-179
11,68,57,-39,-23,63,-49,-144,-81,130,-156,-179
12,69,57,-40,-22,63,-51,-144,-82,130,-157,-179
13,70,57,-41,-22,64,-51,-143,-80,131,-157,-178
14,69,55,-41,-20,62,-52,-143,-80,131,-157,-178
14,68,54,-41,-20,61,-51,-144,-80,130,-157,-179
14,67,53,-40,-19,60,-51,-144,-79,131,-157,-179
14,66,52,-40,-19,59,-49,-144,-77,133,-156,-178
14,66,52,-40,-19,59,-49,-143,-77,134,-155,-178
14,67,53,-40,-19,60,-50,-144,-79,134,-156,-178
14,68,54,-41,-20,61,-51,-144,-79,135,-155,-178
14,69,55,-41,-20,62,-52,-143,-78,135,-154,-177
15,70,55,-42,-20,63,-53,-142,-78,135,-154,-177
16,70,54,-43,-19,62,-53,-141,-77,137,-154,-176
16,71,55,-43,-19,63,-54,-142,-78,136,-154,-177
17,70,53,-43,-18,62,-54,-142,-78,136,-155,-177
17,70,53,-43,-18,62,-54,-143,-77,136,-155,-177
17,69,52,-43,-17,61,-53,-142,-76,137,-155,-177
17,69,52,-43,-17,61,-53,-142,-76,136,-155,-177
16,69,53,-42,-18,61,-54,-141,-76,138,-155,-176
17,69,52,-43,-17,61,-54,-140,-76,139,-154,-175
17,71,54,-44,-18,63,-55,-140,-77,139,-154,-175
18,72,54,-45,-18,63,-57,-141,-78,139,-154,-176
18,71,53,-44,-17,62,-56,-140,-77,140,-153,-175
18,70,52,-44,-17,61,-57,-141,-77,139,-153,-175
18,69,51,-43,-16,60,-58,-142,-77,140,-154,-176
18,68,50,-43,-16,59,-58,-141,-76,141,-153,-175
18,67,49,-42,-15,58,-59,-141,-75,140,-153,-175
18,67,49,-42,-15,58,-59,-141,-74,142,-151,-173
19,70,51,-44,-16,61,-61,-140,-74,144,-151,-172
19,72,53,-45,-17,63,-63,-140,-74,145,-150,-172
20,74,54,-47,-17,64,-65,-140,-75,145,-149,-172
21,75,54,-48,-16,65,-64,-139,-76,146,-149,-172
21,75,54,-48,-16,65,-62,-138,-76,147,-149,-172
22,74,52,-48,-15,63,-61,-139,-76,148,-149,-172
23,73,50,-48,-13,62,-62,-139,-75,148,-149,-172
24,73,49,-48,-12,61,-63,-138,-74,148,-149,-171
24,74,50,-49,-13,62,-63,-137,-73,149,-148,-170
"
		25","
		74","
		49","
		-49","
		-12","
		62","
		-64","
		-137","
		-74","
		150","
		-148","
		-170"
25,75,50,-50,-12,63,-65,-137,-74,152,-147,-169
25,76,51,-50,-13,64,-66,-136,-73,153,-146,-168
25,77,52,-51,-13,65,-69,-137,-74,153,-146,-168
25,77,52,-51,-13,65,-70,-136,-74,155,-145,-168
26,76,50,-51,-12,63,-71,-136,-74,154,-145,-167
27,77,50,-52,-11,64,-70,-135,-72,156,-144,-166
29,78,49,-53,-10,64,-70,-135,-71,158,-144,-166
30,78,48,-54,-9,63,-70,-134,-70,159,-144,-165
30,77,47,-53,-8,62,-69,-133,-68,160,-143,-163
29,77,48,-53,-9,63,-70,-133,-69,161,-142,-163
28,77,49,-52,-10,63,-72,-133,-70,162,-141,-164
28,78,50,-53,-11,64,-74,-132,-70,164,-139,-163
30,80,50,-55,-10,65,-75,-131,-71,165,-138,-161
31,81,50,-56,-9,66,-76,-130,-70,167,-137,-161
32,82,50,-57,-9,66,-77,-130,-70,168,-136,-161
33,81,48,-57,-7,65,-77,-130,-69,169,-135,-159
34,81,47,-57,-6,64,-78,-129,-69,171,-134,-158
35,80,45,-57,-5,63,-79,-128,-68,173,-134,-158
35,80,45,-57,-5,63,-79,-128,-68,174,-133,-157
36,81,45,-58,-4,63,-80,-127,-68,177,-132,-156
37,82,45,-59,-4,64,-80,-126,-68,180,-130,-154
38,83,45,-60,-3,64,-82,-125,-68,182,-128,-153
39,84,45,-61,-3,65,-84,-126,-69,183,-126,-151
40,85,45,-62,-2,65,-85,-125,-69,187,-124,-150
41,86,45,-63,-2,66,-86,-123,-69,189,-123,-150
43,86,43,-64,0,65,-88,-124,-69,191,-122,-149
44,85,41,-64,2,63,-89,-123,-68,194,-120,-147
46,84,38,-65,4,61,-90,-123,-67,196,-118,-145
47,85,38,-66,5,62,-92,-123,-67,198,-117,-145
47,87,40,-67,4,64,-93,-122,-67,202,-115,-142
48,88,40,-68,4,64,-95,-122,-69,205,-114,-141
50,90,40,-70,5,65,-96,-122,-70,208,-112,-139
51,92,41,-71,5,67,-98,-122,-70,211,-109,-138
53,94,41,-73,6,68,-101,-123,-71,213,-108,-137
54,96,42,-75,6,69,-104,-123,-71,216,-106,-136
55,95,40,-75,8,68,-105,-123,-72,218,-104,-134
56,93,37,-74,10,65,-105,-122,-71,222,-102,-131
57,94,37,-75,10,66,-106,-123,-71,224,-101,-130
58,95,37,-76,11,66,-108,-124,-72,226,-99,-129
59,96,37,-77,11,67,-111,-124,-73,230,-96,-126
60,98,38,-79,11,68,-115,-125,-73,234,-93,-124
62,101,39,-81,12,70,-118,-125,-74,237,-91,-123
64,103,39,-83,13,71,-118,-125,-75,241,-87,-120
65,104,39,-84,13,72,-118,-127,-76,243,-86,-120
65,104,39,-84,13,72,-118,-128,-76,246,-84,-119
67,106,39,-86,14,73,-120,-128,-77,248,-82,-118
68,107,39,-87,15,73,-122,-129,-77,250,-80,-117
70,108,38,-89,16,73,-123,-130,-77,252,-79,-117
70,108,38,-89,16,73,-123,-130,-76,254,-78,-116
70,109,39,-89,16,74,-123,-130,-75,257,-76,-114
70,111,41,-90,15,76,-124,-131,-76,259,-76,-113
70,113,43,-91,14,78,-125,-132,-76,259,-75,-112
70,114,44,-92,13,79,-125,-132,-76,260,-74,-111
69,116,47,-92,11,82,-125,-132,-76,260,-73,-110
70,116,46,-93,12,81,-126,-134,-75,259,-74,-111
70,116,46,-93,12,81,-126,-134,-73,258,-74,-113
69,116,47,-92,11,82,-124,-135,-72,256,-76,-114
67,115,48,-91,10,82,-122,-135,-71,254,-78,-115
65,114,49,-89,8,82,-119,-135,-69,252,-79,-116
63,113,50,-88,7,82,-116,-135,-69,249,-81,-117
60,113,53,-86,4,83,-114,-136,-69,245,-83,-119
57,112,55,-84,1,84,-112,-137,-69,241,-84,-121
55,112,57,-83,-1,85,-109,-138,-69,238,-86,-122
55,113,58,-84,-1,86,-107,-140,-70,232,-90,-125
54,114,60,-84,-3,87,-105,-142,-70,226,-94,-128
52,113,61,-82,-4,87,-103,-143,-71,220,-98,-131
50,110,60,-80,-5,85,-99,-144,-72,215,-101,-135
46,107,61,-76,-7,84,-96,-146,-72,209,-105,-138
41,104,63,-72,-11,84,-91,-146,-72,203,-108,-139
38,103,65,-70,-13,84,-88,-148,-74,198,-111,-142
36,101,65,-68,-14,83,-85,-149,-75,194,-114,-144
34,100,66,-67,-16,83,-83,-151,-77,188,-118,-146
31,99,68,-65,-18,84,-81,-153,-79,183,-120,-149
28,97,69,-62,-20,83,-78,-154,-79,179,-121,-150
27,96,69,-61,-21,83,-76,-156,-81,173,-125,-153
26,95,69,-60,-21,82,-74,-157,-82,168,-128,-155
26,94,68,-60,-21,81,-74,-159,-83,163,-132,-158
24,91,67,-57,-21,79,-71,-160,-83,160,-133,-159
21,89,68,-55,-23,79,-68,-161,-84,156,-135,-161
19,88,69,-53,-25,79,-67,-162,-86,153,-137,-162
18,87,69,-52,-25,78,-66,-163,-88,149,-139,-164
17,87,70,-52,-26,79,-64,-163,-88,147,-140,-164
16,87,71,-51,-27,79,-63,-164,-90,144,-141,-166
16,87,71,-51,-27,79,-63,-165,-92,142,-142,-167
15,87,72,-51,-28,80,-63,-166,-93,138,-144,-169
14,86,72,-50,-29,79,-61,-166,-95,135,-146,-170
12,84,72,-48,-30,78,-60,-167,-96,132,-148,-171
11,81,70,-46,-29,76,-57,-167,-95,132,-149,-171
11,81,70,-46,-29,76,-56,-167,-95,130,-150,-172
11,81,70,-46,-29,76,-55,-166,-96,130,-150,-172
10,81,71,-45,-30,76,-55,-167,-97,129,-150,-173
10,80,70,-45,-30,75,-56,-167,-99,127,-151,-173
9,80,71,-44,-31,76,-56,-167,-99,127,-151,-173
9,80,71,-44,-31,76,-54,-167,-100,126,-151,-174
9,80,71,-44,-31,76,-52,-168,-100,124,-152,-175
9,80,71,-44,-31,76,-51,-168,-100,123,-153,-175
10,80,70,-45,-30,75,-52,-169,-102,122,-155,-177
9,79,70,-44,-30,75,-51,-168,-101,122,-155,-178
8,78,70,-43,-31,74,-51,-168,-101,121,-155,-178
7,77,70,-42,-31,74,-51,-168,-102,121,-156,-179
6,77,71,-41,-32,74,-50,-167,-102,122,-155,-177
6,78,72,-42,-33,75,-50,-167,-103,122,-154,-178
7,78,71,-42,-32,75,-50,-166,-103,122,-153,-177
7,79,72,-43,-32,76,-50,-166,-103,122,-153,-177
7,78,71,-42,-32,75,-51,-166,-104,121,-154,-178
7,78,71,-42,-32,75,-51,-166,-104,119,-154,-179
8,77,69,-42,-30,73,-50,-166,-103,120,-154,-179
8,77,69,-42,-30,73,-49,-165,-101,120,-154,-179
7,76,69,-41,-31,73,-48,-165,-101,120,-154,-179
6,75,69,-40,-31,72,-48,-166,-102,120,-155,-180
7,76,69,-41,-31,73,-48,-165,-101,121,-154,-179
7,77,70,-42,-31,74,-48,-165,-101,121,-154,-179
8,78,70,-43,-31,74,-48,-163,-101,122,-152,-178
8,79,71,-43,-31,75,-48,-164,-102,121,-154,-179
9,79,70,-44,-30,75,-49,-164,-102,119,-155,-179
8,78,70,-43,-31,74,-48,-164,-101,120,-155,-179
8,77,69,-42,-30,73,-48,-164,-101,120,-156,-180
8,77,69,-42,-30,73,-48,-164,-101,120,-156,-180
8,77,69,-42,-30,73,-47,-163,-100,120,-156,-180
8,78,70,-43,-31,74,-47,-163,-100,121,-156,-180
8,78,70,-43,-31,74,-47,-162,-100,121,-156,-179
8,78,70,-43,-31,74,-47,-162,-100,122,-155,-179
8,79,71,-43,-31,75,-48,-162,-101,121,-155,-179
8,79,71,-43,-31,75,-48,-162,-101,120,-155,-179
8,79,71,-43,-31,75,-49,-162,-100,120,-155,-179
9,79,70,-44,-30,75,-49,-161,-100,119,-155,-180
10,79,69,-44,-29,74,-49,-161,-99,120,-156,-180
10,79,69,-44,-29,74,-49,-161,-98,120,-156,-180
9,78,69,-43,-30,74,-48,-161,-98,120,-156,-181
9,78,69,-43,-30,74,-47,-160,-98,120,-155,-181
9,78,69,-43,-30,74,-46,-160,-98,120,-155,-181
8,78,70,-43,-31,74,-45,-159,-97,121,-153,-179
8,79,71,-43,-31,75,-47,-160,-98,120,-153,-179
9,80,71,-44,-31,76,-47,-159,-98,122,-152,-178
10,81,71,-45,-30,76,-48,-160,-98,121,-153,-179
10,80,70,-45,-30,75,-48,-160,-99,120,-154,-180
10,80,70,-45,-30,75,-47,-160,-99,120,-155,-181
10,79,69,-44,-29,74,-46,-159,-98,120,-154,-180
10,79,69,-44,-29,74,-45,-159,-97,120,-154,-180
10,79,69,-44,-29,74,-45,-159,-98,121,-154,-179
10,79,69,-44,-29,74,-45,-158,-98,121,-154,-179
10,80,70,-45,-30,75,-46,-159,-99,120,-154,-179
10,80,70,-45,-30,75,-46,-158,-99,121,-153,-179
11,80,69,-45,-29,75,-46,-158,-99,122,-152,-178
12,79,67,-45,-27,73,-47,-158,-99,121,-152,-179
12,79,67,-45,-27,73,-47,-158,-100,120,-153,-179
12,78,66,-45,-27,72,-48,-159,-100,119,-154,-180
11,78,67,-44,-28,73,-47,-158,-100,120,-153,-180
11,78,67,-44,-28,73,-46,-158,-100,119,-154,-180
10,78,68,-44,-29,73,-45,-158,-101,119,-154,-179
10,79,69,-44,-29,74,-45,-158,-101,119,-154,-179
10,79,69,-44,-29,74,-45,-158,-102,120,-154,-179
11,80,69,-45,-29,75,-47,-159,-103,119,-155,-180
11,81,70,-46,-29,76,-47,-159,-103,119,-154,-179
12,82,70,-47,-29,76,-48,-159,-104,117,-155,-180
12,82,70,-47,-29,76,-48,-159,-103,117,-155,-180
12,81,69,-46,-28,75,-48,-160,-104,117,-156,-181
11,79,68,-45,-28,74,-47,-160,-105,117,-156,-181
10,78,68,-44,-29,73,-47,-159,-104,117,-155,-180
10,79,69,-44,-29,74,-46,-159,-105,118,-155,-180
11,80,69,-45,-29,75,-46,-160,-106,117,-155,-180
11,81,70,-46,-29,76,-46,-160,-106,117,-154,-180
11,81,70,-46,-29,76,-46,-160,-107,117,-154,-180
12,81,69,-46,-28,75,-47,-161,-108,116,-154,-180
12,80,68,-46,-28,74,-47,-161,-108,116,-154,-180
11,79,68,-45,-28,74,-48,-162,-109,114,-155,-181
11,78,67,-44,-28,73,-47,-162,-109,114,-155,-181
12,78,66,-45,-27,72,-47,-163,-110,112,-156,-182
13,79,66,-46,-26,73,-46,-161,-109,114,-155,-181
13,80,67,-46,-27,74,-45,-161,-109,114,-156,-181
12,80,68,-46,-28,74,-43,-160,-109,114,-154,-180
11,79,68,-45,-28,74,-44,-162,-111,113,-155,-181
9,78,69,-43,-30,74,-44,-162,-112,113,-155,-181
9,78,69,-43,-30,74,-45,-162,-113,112,-156,-182
10,78,68,-44,-29,73,-45,-162,-113,111,-156,-182
10,78,68,-44,-29,73,-46,-162,-113,111,-156,-183
11,78,67,-44,-28,73,-46,-163,-113,111,-156,-183
11,78,67,-44,-28,73,-44,-163,-113,111,-156,-182
10,77,67,-43,-28,72,-43,-164,-113,110,-156,-182
10,77,67,-43,-28,72,-44,-164,-114,110,-157,-182
9,77,68,-43,-29,73,-43,-163,-113,110,-155,-181
10,77,67,-43,-28,72,-45,-164,-115,110,-156,-182
10,77,67,-43,-28,72,-45,-163,-115,111,-155,-182
10,77,67,-43,-28,72,-45,-164,-116,110,-155,-182
10,76,66,-43,-28,71,-43,-165,-116,110,-155,-182
9,76,67,-42,-29,72,-44,-165,-116,109,-156,-182
10,76,66,-43,-28,71,-44,-165,-116,109,-157,-182
11,76,65,-43,-27,71,-45,-165,-117,109,-158,-182
11,77,66,-44,-27,72,-44,-165,-117,109,-158,-182
11,78,67,-44,-28,73,-44,-165,-117,108,-158,-182
10,77,67,-43,-28,72,-44,-165,-117,108,-158,-182
10,77,67,-43,-28,72,-44,-166,-118,108,-158,-182
11,78,67,-44,-28,73,-44,-165,-118,108,-157,-182
11,78,67,-44,-28,73,-43,-165,-118,108,-156,-181
12,79,67,-45,-27,73,-43,-166,-119,108,-157,-182
12,79,67,-45,-27,73,-42,-166,-119,108,-157,-182
12,78,66,-45,-27,72,-42,-166,-119,107,-157,-183
11,78,67,-44,-28,73,-42,-166,-119,108,-157,-182
11,78,67,-44,-28,73,-42,-166,-119,108,-158,-182
10,78,68,-44,-29,73,-42,-166,-120,107,-158,-183
10,78,68,-44,-29,73,-42,-167,-120,107,-158,-183
10,78,68,-44,-29,73,-41,-167,-121,107,-158,-183
10,78,68,-44,-29,73,-41,-167,-121,107,-158,-183
10,78,68,-44,-29,73,-41,-166,-121,107,-158,-182
10,78,68,-44,-29,73,-41,-166,-120,106,-158,-182
10,78,68,-44,-29,73,-41,-166,-121,106,-158,-183
10,78,68,-44,-29,73,-41,-167,-121,107,-158,-183
11,78,67,-44,-28,73,-40,-166,-121,107,-159,-184
11,77,66,-44,-27,72,-40,-166,-121,107,-159,-184
10,76,66,-43,-28,71,-39,-166,-120,108,-158,-183
8,77,69,-42,-30,73,-39,-166,-120,107,-159,-183
9,78,69,-43,-30,74,-39,-167,-121,106,-160,-184
10,79,69,-44,-29,74,-38,-166,-121,106,-160,-183
10,79,69,-44,-29,74,-38,-166,-122,106,-160,-183
10,79,69,-44,-29,74,-38,-167,-122,106,-159,-183
10,79,69,-44,-29,74,-38,-167,-122,106,-159,-183
9,78,69,-43,-30,74,-38,-167,-122,106,-160,-184
9,78,69,-43,-30,74,-37,-168,-123,105,-161,-184
9,78,69,-43,-30,74,-37,-168,-123,105,-162,-185
9,78,69,-43,-30,74,-37,-168,-123,105,-162,-184
9,78,69,-43,-30,74,-38,-168,-123,105,-161,-184
9,79,70,-44,-30,75,-38,-167,-123,105,-160,-184
10,80,70,-45,-30,75,-39,-167,-123,105,-160,-184
9,80,71,-44,-31,76,-37,-166,-122,106,-158,-183
9,79,70,-44,-30,75,-36,-167,-123,105,-160,-183
9,78,69,-43,-30,74,-36,-168,-124,104,-161,-184
9,78,69,-43,-30,74,-36,-168,-124,104,-162,-185
9,79,70,-44,-30,75,-37,-168,-124,104,-161,-185
10,79,69,-44,-29,74,-36,-168,-124,104,-161,-184
10,79,69,-44,-29,74,-35,-168,-124,104,-161,-184
9,78,69,-43,-30,74,-34,-169,-124,104,-161,-184
8,77,69,-42,-30,73,-33,-168,-124,104,-161,-184
8,77,69,-42,-30,73,-34,-169,-125,104,-161,-184
9,78,69,-43,-30,74,-35,-169,-125,103,-162,-184
10,78,68,-44,-29,73,-35,-168,-125,104,-162,-183
10,78,68,-44,-29,73,-34,-169,-126,104,-161,-184
10,77,67,-43,-28,72,-34,-169,-126,104,-161,-185
9,77,68,-43,-29,73,-33,-168,-125,104,-160,-184
8,77,69,-42,-30,73,-32,-168,-125,103,-160,-184
8,78,70,-43,-31,74,-32,-168,-125,104,-161,-184
9,78,69,-43,-30,74,-33,-170,-126,103,-162,-185
9,78,69,-43,-30,74,-33,-169,-126,103,-162,-185
9,78,69,-43,-30,74,-33,-169,-126,103,-161,-185
9,77,68,-43,-29,73,-33,-168,-125,104,-160,-184
10,77,67,-43,-28,72,-34,-170,-126,103,-161,-185
10,77,67,-43,-28,72,-34,-169,-126,103,-161,-186
10,77,67,-43,-28,72,-33,-169,-126,103,-161,-186
10,76,66,-43,-28,71,-33,-169,-125,104,-160,-185
9,75,66,-42,-28,71,-33,-169,-125,103,-161,-185
9,75,66,-42,-28,71,-33,-169,-125,103,-161,-185
9,76,67,-42,-29,72,-33,-168,-125,103,-161,-185
10,76,66,-43,-28,71,-32,-168,-125,104,-160,-184
10,77,67,-43,-28,72,-32,-168,-126,103,-161,-185
11,76,65,-43,-27,71,-32,-169,-126,103,-161,-184
11,76,65,-43,-27,71,-32,-169,-126,103,-161,-185
11,75,64,-43,-26,70,-31,-169,-124,103,-161,-184
11,75,64,-43,-26,70,-31,-169,-124,102,-161,-184
10,75,65,-42,-27,70,-30,-169,-124,102,-161,-184
10,75,65,-42,-27,70,-30,-168,-125,103,-161,-184
10,75,65,-42,-27,70,-32,-168,-125,103,-161,-184
10,75,65,-42,-27,70,-34,-169,-125,103,-161,-185
9,76,67,-42,-29,72,-33,-169,-125,102,-161,-185
10,77,67,-43,-28,72,-32,-169,-126,102,-162,-186
10,77,67,-43,-28,72,-31,-169,-126,103,-163,-185
9,77,68,-43,-29,73,-31,-169,-126,103,-162,-185
8,76,68,-42,-30,72,-31,-169,-126,101,-162,-186
10,76,66,-43,-28,71,-31,-169,-126,102,-162,-186
10,76,66,-43,-28,71,-32,-169,-125,102,-163,-186
9,75,66,-42,-28,71,-33,-169,-126,102,-163,-186
9,75,66,-42,-28,71,-34,-170,-126,102,-163,-186
9,75,66,-42,-28,71,-35,-170,-126,102,-163,-186
8,75,67,-41,-29,71,-34,-169,-126,103,-163,-186
8,75,67,-41,-29,71,-34,-169,-127,102,-163,-186
10,76,66,-43,-28,71,-33,-169,-126,103,-163,-185
11,77,66,-44,-27,72,-32,-168,-126,103,-162,-184
10,76,66,-43,-28,71,-32,-168,-126,103,-162,-185
9,75,66,-42,-28,71,-33,-170,-127,102,-164,-187
9,75,66,-42,-28,71,-33,-170,-127,101,-165,-187
9,74,65,-41,-28,70,-31,-169,-126,102,-163,-185
9,74,65,-41,-28,70,-31,-168,-126,102,-163,-185
9,76,67,-42,-29,72,-33,-169,-127,102,-163,-185
9,76,67,-42,-29,72,-33,-169,-128,101,-163,-185
9,76,67,-42,-29,72,-34,-169,-129,101,-163,-185
9,76,67,-42,-29,72,-34,-169,-129,101,-163,-185
10,77,67,-43,-28,72,-35,-170,-129,101,-164,-186
10,77,67,-43,-28,72,-35,-170,-129,101,-163,-187
10,76,66,-43,-28,71,-34,-170,-128,101,-163,-186
9,75,66,-42,-28,71,-33,-170,-128,101,-164,-187
9,75,66,-42,-28,71,-33,-169,-129,101,-164,-187
9,75,66,-42,-28,71,-32,-170,-129,101,-164,-187
9,76,67,-42,-29,72,-32,-170,-129,101,-165,-187
9,76,67,-42,-29,72,-32,-170,-129,101,-165,-187
9,77,68,-43,-29,73,-31,-170,-129,101,-164,-186
9,77,68,-43,-29,73,-31,-169,-129,102,-163,-185
10,77,67,-43,-28,72,-32,-169,-129,101,-164,-186
10,77,67,-43,-28,72,-33,-170,-130,101,-165,-186
9,76,67,-42,-29,72,-33,-170,-129,101,-165,-186
8,75,67,-41,-29,71,-32,-169,-129,101,-164,-185
10,75,65,-42,-27,70,-33,-169,-129,101,-164,-185
"
		11","
		77","
		66","
		-44","
		-27","
		72","
		-33","
		-169","
		-130","
		101","
		-164","
		-185"
10,78,68,-44,-29,73,-34,-170,-130,101,-165,-186
8,76,68,-42,-30,72,-35,-169,-130,101,-164,-185
9,76,67,-42,-29,72,-36,-169,-130,102,-164,-185
9,77,68,-43,-29,73,-35,-169,-130,102,-164,-184
9,77,68,-43,-29,73,-35,-170,-131,100,-164,-186
8,76,68,-42,-30,72,-34,-171,-132,99,-165,-187
7,75,68,-41,-30,72,-32,-171,-131,99,-164,-187
7,74,67,-40,-30,71,-32,-170,-130,100,-164,-187
8,74,66,-41,-29,70,-31,-169,-129,101,-163,-186
9,75,66,-42,-28,71,-32,-170,-130,101,-163,-187
9,76,67,-42,-29,72,-33,-170,-131,101,-164,-186
9,76,67,-42,-29,72,-33,-170,-131,101,-164,-186
9,76,67,-42,-29,72,-33,-169,-132,101,-164,-185
9,76,67,-42,-29,72,-32,-169,-132,101,-164,-185
9,76,67,-42,-29,72,-31,-169,-131,101,-163,-185
10,76,66,-43,-28,71,-31,-169,-131,101,-162,-186
11,76,65,-43,-27,71,-32,-170,-132,100,-164,-187
9,74,65,-41,-28,70,-32,-170,-131,101,-164,-187
7,72,65,-39,-29,69,-33,-171,-132,100,-164,-187
7,72,65,-39,-29,69,-32,-171,-132,100,-165,-187
7,74,67,-40,-30,71,-32,-171,-133,100,-165,-187
8,76,68,-42,-30,72,-31,-170,-133,101,-165,-187
10,77,67,-43,-28,72,-31,-169,-133,101,-164,-186
10,77,67,-43,-28,72,-33,-170,-133,101,-164,-185
10,76,66,-43,-28,71,-33,-170,-133,101,-164,-186
9,76,67,-42,-29,72,-33,-170,-133,102,-164,-188
10,75,65,-42,-27,70,-32,-170,-133,102,-164,-188
11,75,64,-43,-26,70,-32,-170,-132,101,-164,-187
10,74,64,-42,-27,69,-33,-171,-133,100,-164,-188
9,74,65,-41,-28,70,-32,-170,-133,101,-163,-187
9,75,66,-42,-28,71,-32,-171,-134,100,-164,-188
9,75,66,-42,-28,71,-31,-170,-133,101,-163,-188
9,75,66,-42,-28,71,-31,-170,-133,101,-163,-187
8,75,67,-41,-29,71,-31,-169,-132,102,-163,-186
8,75,67,-41,-29,71,-31,-169,-133,101,-163,-187
9,75,66,-42,-28,71,-32,-171,-134,100,-164,-188
9,75,66,-42,-28,71,-32,-171,-134,100,-164,-188
9,75,66,-42,-28,71,-32,-171,-135,100,-164,-188
10,74,64,-42,-27,69,-31,-170,-135,100,-164,-188
10,75,65,-42,-27,70,-30,-170,-135,101,-164,-188
9,75,66,-42,-28,71,-31,-170,-135,100,-165,-189
8,75,67,-41,-29,71,-30,-169,-134,101,-164,-188
9,74,65,-41,-28,70,-30,-169,-134,102,-163,-187
10,74,64,-42,-27,69,-31,-170,-135,101,-164,-188
9,74,65,-41,-28,70,-31,-169,-134,101,-163,-187
9,74,65,-41,-28,70,-32,-169,-134,100,-163,-187
9,74,65,-41,-28,70,-32,-170,-134,101,-164,-187
9,74,65,-41,-28,70,-32,-170,-134,101,-164,-187
9,74,65,-41,-28,70,-31,-170,-134,101,-164,-187
9,74,65,-41,-28,70,-30,-170,-134,101,-164,-187
9,74,65,-41,-28,70,-30,-171,-134,101,-164,-188
9,74,65,-41,-28,70,-31,-170,-135,101,-164,-188
8,74,66,-41,-29,70,-31,-170,-135,101,-165,-188
8,74,66,-41,-29,70,-31,-171,-135,101,-165,-188
8,74,66,-41,-29,70,-31,-171,-135,101,-165,-188
9,75,66,-42,-28,71,-32,-171,-135,101,-165,-189
9,75,66,-42,-28,71,-32,-171,-135,101,-165,-188
10,76,66,-43,-28,71,-32,-170,-135,101,-165,-188
10,76,66,-43,-28,71,-33,-170,-135,101,-164,-188
10,75,65,-42,-27,70,-34,-170,-135,100,-164,-189
9,75,66,-42,-28,71,-33,-170,-135,100,-164,-189
10,75,65,-42,-27,70,-31,-170,-135,101,-164,-188
11,77,66,-44,-27,72,-32,-171,-136,101,-164,-188
11,78,67,-44,-28,73,-33,-170,-135,101,-163,-188
10,76,66,-43,-28,71,-34,-170,-135,101,-163,-188
9,74,65,-41,-28,70,-33,-170,-135,101,-163,-188
10,75,65,-42,-27,70,-34,-171,-135,101,-163,-188
10,75,65,-42,-27,70,-33,-170,-134,101,-163,-187
9,74,65,-41,-28,70,-33,-170,-135,101,-163,-188
7,73,66,-40,-29,70,-34,-170,-135,101,-164,-188
6,73,67,-39,-30,70,-35,-171,-136,100,-166,-189
6,73,67,-39,-30,70,-35,-171,-136,100,-166,-188
7,74,67,-40,-30,71,-36,-171,-136,100,-166,-189
8,76,68,-42,-30,72,-36,-171,-135,101,-165,-189
9,76,67,-42,-29,72,-35,-170,-135,101,-165,-188
9,75,66,-42,-28,71,-35,-171,-135,100,-165,-189
9,75,66,-42,-28,71,-35,-171,-135,100,-165,-189
9,75,66,-42,-28,71,-35,-171,-134,101,-165,-189
10,75,65,-42,-27,70,-35,-170,-134,102,-165,-188
11,75,64,-43,-26,70,-34,-170,-133,102,-165,-188
11,75,64,-43,-26,70,-34,-170,-134,102,-166,-188
9,75,66,-42,-28,71,-34,-170,-135,101,-166,-189
9,76,67,-42,-29,72,-35,-170,-135,101,-166,-189
9,76,67,-42,-29,72,-35,-170,-134,101,-165,-189
9,76,67,-42,-29,72,-36,-171,-135,101,-166,-189
9,75,66,-42,-28,71,-36,-171,-136,100,-166,-189
8,75,67,-41,-29,71,-36,-170,-135,101,-165,-188
8,75,67,-41,-29,71,-35,-170,-134,101,-165,-188
9,75,66,-42,-28,71,-36,-171,-135,100,-166,-188
9,76,67,-42,-29,72,-36,-171,-135,100,-166,-188
9,75,66,-42,-28,71,-35,-171,-135,101,-165,-188
10,75,65,-42,-27,70,-35,-171,-135,101,-165,-188
10,76,66,-43,-28,71,-36,-170,-135,101,-164,-187
11,77,66,-44,-27,72,-39,-171,-136,100,-165,-188
11,77,66,-44,-27,72,-40,-171,-136,100,-165,-187
10,76,66,-43,-28,71,-39,-171,-136,101,-165,-187
10,76,66,-43,-28,71,-38,-171,-136,100,-166,-189
10,75,65,-42,-27,70,-37,-172,-137,99,-166,-189
9,74,65,-41,-28,70,-36,-170,-136,100,-165,-188
9,75,66,-42,-28,71,-36,-171,-137,99,-166,-189
9,76,67,-42,-29,72,-36,-171,-137,100,-166,-188
8,76,68,-42,-30,72,-38,-172,-138,99,-167,-189
7,76,69,-41,-31,73,-38,-171,-137,100,-166,-188
8,77,69,-42,-30,73,-39,-171,-137,100,-166,-189
9,78,69,-43,-30,74,-39,-171,-136,100,-166,-189
10,78,68,-44,-29,73,-38,-171,-136,99,-165,-189
9,77,68,-43,-29,73,-36,-171,-136,100,-164,-188
9,76,67,-42,-29,72,-35,-172,-136,99,-165,-188
10,76,66,-43,-28,71,-35,-171,-135,100,-165,-188
11,76,65,-43,-27,71,-36,-172,-136,100,-166,-189
11,76,65,-43,-27,71,-37,-172,-137,100,-166,-189
10,75,65,-42,-27,70,-36,-171,-137,100,-166,-188
10,75,65,-42,-27,70,-36,-171,-137,100,-166,-188
9,75,66,-42,-28,71,-36,-171,-138,99,-166,-188
8,75,67,-41,-29,71,-36,-171,-137,99,-165,-187
7,74,67,-40,-30,71,-37,-171,-136,100,-165,-187
8,75,67,-41,-29,71,-36,-171,-136,100,-165,-187
9,75,66,-42,-28,71,-37,-171,-136,99,-165,-187
9,75,66,-42,-28,71,-38,-172,-137,98,-166,-187
8,75,67,-41,-29,71,-37,-171,-137,99,-165,-186
8,75,67,-41,-29,71,-37,-170,-137,99,-164,-186
9,76,67,-42,-29,72,-36,-170,-137,99,-164,-186
10,77,67,-43,-28,72,-37,-171,-138,99,-165,-187
10,78,68,-44,-29,73,-37,-171,-138,99,-166,-187
10,78,68,-44,-29,73,-38,-172,-138,99,-166,-187
9,77,68,-43,-29,73,-38,-172,-138,99,-166,-187
8,76,68,-42,-30,72,-38,-173,-138,99,-166,-188
8,75,67,-41,-29,71,-37,-172,-137,100,-165,-187
8,75,67,-41,-29,71,-37,-171,-137,100,-165,-186
8,75,67,-41,-29,71,-37,-171,-137,100,-165,-186
8,75,67,-41,-29,71,-37,-170,-136,100,-165,-186
8,76,68,-42,-30,72,-38,-171,-137,99,-165,-187
8,75,67,-41,-29,71,-40,-171,-137,100,-165,-186
8,75,67,-41,-29,71,-42,-172,-138,100,-166,-187
8,75,67,-41,-29,71,-41,-172,-138,100,-167,-187
8,75,67,-41,-29,71,-39,-171,-137,101,-166,-186
9,75,66,-42,-28,71,-38,-171,-137,101,-166,-186
9,75,66,-42,-28,71,-37,-171,-136,100,-166,-186
9,75,66,-42,-28,71,-37,-171,-137,100,-166,-186
8,74,66,-41,-29,70,-37,-171,-136,101,-166,-186
7,74,67,-40,-30,71,-38,-172,-136,101,-167,-186
8,75,67,-41,-29,71,-37,-171,-136,101,-165,-185
9,76,67,-42,-29,72,-38,-171,-137,100,-166,-185
9,77,68,-43,-29,73,-40,-171,-137,100,-166,-186
9,76,67,-42,-29,72,-41,-172,-138,99,-166,-187
8,76,68,-42,-30,72,-41,-172,-138,99,-166,-187
8,76,68,-42,-30,72,-39,-172,-138,99,-166,-187
8,76,68,-42,-30,72,-37,-172,-137,100,-165,-186
9,77,68,-43,-29,73,-37,-171,-137,100,-164,-185
8,77,69,-42,-30,73,-38,-172,-138,100,-166,-186
7,76,69,-41,-31,73,-38,-172,-138,100,-166,-185
6,74,68,-40,-31,71,-38,-171,-138,101,-165,-185
7,74,67,-40,-30,71,-39,-172,-138,101,-165,-186
8,75,67,-41,-29,71,-39,-171,-138,101,-164,-185
8,76,68,-42,-30,72,-39,-171,-138,101,-164,-186
8,77,69,-42,-30,73,-38,-170,-137,101,-163,-185
7,78,71,-42,-32,75,-37,-170,-135,101,-163,-185
8,79,71,-43,-31,75,-37,-169,-135,102,-163,-185
9,80,71,-44,-31,76,-35,-167,-133,104,-162,-184
10,81,71,-45,-30,76,-36,-168,-134,104,-162,-184
10,81,71,-45,-30,76,-36,-167,-133,104,-162,-184
11,82,71,-46,-30,77,-36,-167,-133,105,-162,-184
12,84,72,-48,-30,78,-35,-166,-132,106,-161,-183
13,86,73,-49,-30,80,-34,-164,-131,106,-160,-182
14,87,73,-50,-29,80,-33,-162,-129,108,-159,-182
15,88,73,-51,-29,81,-33,-162,-129,108,-159,-183
14,88,74,-51,-30,81,-32,-162,-129,108,-160,-183
13,87,74,-50,-30,81,-31,-161,-128,108,-159,-183
13,86,73,-49,-30,80,-30,-162,-128,107,-160,-183
14,86,72,-50,-29,79,-28,-161,-128,107,-160,-183
14,87,73,-50,-29,80,-26,-160,-127,108,-159,-182
14,89,75,-51,-30,82,-24,-159,-127,109,-159,-182
15,90,75,-52,-30,83,-24,-158,-126,110,-158,-182
15,91,76,-53,-30,84,-25,-157,-125,110,-158,-181
16,90,74,-53,-29,82,-27,-156,-125,110,-159,-182
16,88,72,-52,-28,80,-26,-154,-123,111,-158,-182
19,89,70,-54,-25,80,-29,-154,-123,112,-159,-182
21,90,69,-55,-24,80,-31,-155,-121,113,-157,-181
22,92,70,-57,-24,81,-38,-159,-122,114,-156,-179
22,95,73,-58,-25,84,-44,-166,-123,114,-154,-177
21,98,77,-59,-28,88,-45,-167,-122,118,-151,-173
23,101,78,-62,-27,90,-45,-166,-121,120,-149,-171
24,102,78,-63,-27,90,-43,-164,-120,120,-148,-171
24,100,76,-62,-26,88,-44,-164,-119,119,-149,-172
22,97,75,-59,-26,86,-46,-165,-120,118,-149,-173
20,94,74,-57,-27,84,-48,-167,-123,116,-151,-174
20,91,71,-55,-25,81,-48,-168,-126,114,-152,-175
19,91,72,-55,-26,82,-46,-169,-127,113,-153,-176
18,91,73,-54,-27,82,-45,-171,-129,111,-154,-177
17,91,74,-54,-28,83,-43,-171,-130,111,-155,-177
17,90,73,-53,-28,82,-41,-169,-130,111,-155,-176
17,90,73,-53,-28,82,-41,-168,-131,111,-156,-178
16,89,73,-52,-28,81,-41,-168,-132,110,-157,-179
16,87,71,-51,-27,79,-41,-168,-132,111,-157,-179
16,84,68,-50,-26,76,-41,-168,-132,111,-157,-179
17,84,67,-50,-25,76,-41,-168,-132,110,-157,-179
18,84,66,-51,-24,75,-42,-170,-133,109,-158,-180
18,84,66,-51,-24,75,-42,-171,-133,109,-158,-180
18,84,66,-51,-24,75,-44,-172,-133,109,-158,-179
18,84,66,-51,-24,75,-45,-172,-133,109,-158,-179
17,83,66,-50,-24,75,-43,-170,-133,110,-158,-179
16,83,67,-49,-25,75,-43,-170,-134,110,-158,-180
15,83,68,-49,-26,76,-42,-169,-133,110,-158,-180
13,82,69,-47,-28,76,-41,-169,-134,108,-159,-181
12,81,69,-46,-28,75,-41,-170,-136,105,-161,-184
10,80,70,-45,-30,75,-40,-169,-136,104,-161,-184
10,79,69,-44,-29,74,-38,-167,-135,105,-161,-185
9,77,68,-43,-29,73,-38,-167,-136,104,-162,-185
8,75,67,-41,-29,71,-38,-169,-138,103,-163,-186
7,73,66,-40,-29,70,-37,-169,-138,103,-163,-186
8,73,65,-40,-28,69,-39,-171,-140,101,-164,-188
8,72,64,-40,-28,68,-38,-171,-141,101,-164,-187
8,72,64,-40,-28,68,-39,-172,-142,100,-165,-188
7,72,65,-39,-29,69,-39,-172,-143,100,-165,-188
7,72,65,-39,-29,69,-38,-172,-143,101,-165,-188
7,73,66,-40,-29,70,-38,-172,-142,100,-165,-188
8,74,66,-41,-29,70,-40,-173,-142,99,-166,-189
9,74,65,-41,-28,70,-40,-172,-141,99,-165,-188
9,74,65,-41,-28,70,-41,-171,-141,100,-165,-187
9,73,64,-41,-27,69,-40,-171,-141,100,-165,-187
8,73,65,-40,-28,69,-39,-171,-141,100,-165,-187
9,74,65,-41,-28,70,-38,-171,-142,101,-165,-187
9,74,65,-41,-28,70,-37,-171,-142,101,-165,-186
9,74,65,-41,-28,70,-37,-172,-142,101,-165,-187
9,74,65,-41,-28,70,-38,-172,-142,100,-165,-188
8,74,66,-41,-29,70,-39,-173,-142,100,-165,-188
8,74,66,-41,-29,70,-39,-173,-141,100,-165,-188
8,74,66,-41,-29,70,-38,-172,-140,100,-165,-188
7,74,67,-40,-30,71,-39,-172,-141,99,-166,-188
6,73,67,-39,-30,70,-40,-172,-141,99,-166,-189
5,71,66,-38,-30,69,-39,-171,-140,99,-165,-188
7,73,66,-40,-29,70,-39,-170,-141,99,-165,-188
8,74,66,-41,-29,70,-40,-171,-142,99,-165,-188
7,73,66,-40,-29,70,-40,-171,-142,100,-165,-188
6,72,66,-39,-30,69,-40,-171,-143,99,-165,-189
6,72,66,-39,-30,69,-40,-171,-143,98,-165,-189
7,73,66,-40,-29,70,-39,-170,-142,99,-164,-188
8,75,67,-41,-29,71,-40,-171,-142,99,-165,-188
8,75,67,-41,-29,71,-41,-170,-142,100,-165,-188
8,74,66,-41,-29,70,-43,-170,-142,100,-165,-188
7,74,67,-40,-30,71,-43,-170,-142,100,-166,-188
7,74,67,-40,-30,71,-42,-170,-142,100,-166,-188
6,74,68,-40,-31,71,-41,-170,-141,102,-165,-187
7,75,68,-41,-30,72,-43,-171,-142,102,-165,-188
8,76,68,-42,-30,72,-44,-172,-142,101,-165,-189
8,75,67,-41,-29,71,-43,-170,-141,102,-165,-188
7,73,66,-40,-29,70,-42,-168,-140,101,-166,-189
7,69,62,-38,-27,66,-39,-163,-140,99,-169,-192
7,64,57,-35,-25,61,-33,-152,-140,96,-173,-196
8,58,50,-33,-21,54,-26,-137,-137,93,-180,-202
11,50,39,-30,-14,45,-19,-119,-132,91,-187,-208
12,42,30,-27,-9,36,-12,-103,-128,87,-196,-217
12,33,21,-22,-4,27,-3,-87,-122,82,-204,-225
12,29,17,-20,-2,23,5,-73,-112,80,-208,-229
14,32,18,-23,-2,25,6,-68,-98,83,-208,-230
16,42,26,-29,-5,34,3,-67,-78,91,-202,-224
21,57,36,-39,-7,47,-5,-67,-52,108,-189,-214
31,78,47,-54,-8,63,-17,-68,-24,134,-169,-198
44,104,60,-74,-8,82,-34,-71,4,168,-142,-176
57,134,77,-95,-10,106,-49,-75,31,207,-110,-149
69,165,96,-117,-13,131,-62,-80,57,251,-74,-121
80,198,118,-139,-19,158,-73,-96,85,302,-34,-90
87,235,148,-161,-30,192,-89,-138,97,354,7,-56
88,273,185,-180,-48,229,-106,-214,68,396,49,-20
82,316,234,-199,-76,275,-122,-331,2,431,95,20
71,369,298,-220,-113,334,-140,-485,-76,472,152,68
55,425,370,-240,-157,398,-162,-638,-135,525,211,118
39,465,426,-252,-193,446,-184,-752,-167,581,258,157
29,490,461,-259,-216,476,-207,-827,-184,632,289,183
22,505,483,-263,-230,494,-218,-868,-189,682,313,202
17,506,489,-261,-236,498,-215,-887,-192,728,324,210
14,492,478,-253,-232,485,-206,-892,-202,760,317,204
12,466,454,-239,-221,460,-199,-884,-229,753,291,186
5,432,427,-218,-211,430,-191,-866,-272,690,251,159
-6,391,397,-192,-201,394,-186,-844,-326,576,198,124
-17,338,355,-160,-186,347,-187,-805,-376,427,132,81
-24,271,295,-123,-159,283,-190,-745,-417,255,54,27
-32,207,239,-87,-135,223,-198,-687,-455,90,-25,-30
-39,162,201,-61,-120,182,-216,-650,-473,-16,-84,-74
-42,135,177,-46,-109,156,-237,-621,-456,-46,-120,-105
-44,115,159,-35,-101,137,-251,-590,-423,-35,-142,-128
-48,100,148,-26,-98,124,-250,-562,-395,-20,-157,-147
-49,89,138,-20,-93,114,-239,-527,-368,-4,-164,-159
-46,85,131,-19,-88,108,-231,-488,-338,14,-168,-168
-41,84,125,-21,-83,105,-218,-447,-309,32,-170,-173
-35,86,121,-25,-78,104,-197,-405,-281,45,-172,-179
-28,89,117,-30,-72,103,-171,-362,-252,60,-169,-181
-20,91,111,-35,-65,101,-146,-323,-225,74,-166,-181
-13,92,105,-39,-59,99,-125,-287,-200,87,-162,-179
-5,93,98,-44,-51,96,-108,-256,-179,97,-159,-177
0,93,93,-46,-46,93,-93,-231,-163,106,-156,-177
2,92,90,-47,-44,91,-81,-212,-152,113,-153,-175
4,91,87,-47,-41,89,-73,-200,-145,114,-153,-174
5,90,85,-47,-40,88,-67,-191,-141,115,-153,-173
7,89,82,-48,-37,86,-64,-184,-138,115,-154,-175
10,88,78,-49,-34,83,-60,-178,-134,116,-154,-176
12,87,75,-49,-31,81,-57,-175,-131,114,-157,-178
12,83,71,-47,-29,77,-52,-170,-127,114,-159,-179
11,79,68,-45,-28,74,-49,-167,-125,114,-162,-181
"
		10","
		78","
		68","
		-44","
		-29","
		73","
		-45","
		-163","
		-123","
		113","
		-162","
		-182"
10,77,67,-43,-28,72,-43,-159,-122,114,-162,-183
9,76,67,-42,-29,72,-41,-156,-120,115,-162,-183
9,76,67,-42,-29,72,-42,-154,-120,116,-162,-183
9,77,68,-43,-29,73,-42,-151,-120,116,-162,-182
9,78,69,-43,-30,74,-42,-149,-120,116,-162,-183
12,79,67,-45,-27,73,-41,-148,-118,116,-162,-183
14,80,66,-47,-26,73,-40,-146,-116,117,-162,-184
15,80,65,-47,-25,73,-38,-144,-113,117,-163,-184
15,77,62,-46,-23,70,-37,-144,-112,117,-165,-185
13,75,62,-44,-24,69,-36,-143,-111,116,-166,-186
12,75,63,-43,-25,69,-35,-142,-111,117,-165,-187
13,77,64,-45,-25,71,-35,-141,-112,118,-164,-186
14,79,65,-46,-25,72,-35,-140,-112,118,-164,-185
14,80,66,-47,-26,73,-35,-138,-112,120,-163,-184
15,80,65,-47,-25,73,-36,-137,-112,121,-163,-183
15,79,64,-47,-24,72,-36,-136,-111,121,-163,-183
16,78,62,-47,-23,70,-36,-136,-109,120,-163,-184
16,77,61,-46,-22,69,-36,-137,-108,120,-163,-184
16,76,60,-46,-22,68,-33,-135,-105,121,-163,-184
16,76,60,-46,-22,68,-32,-135,-105,121,-163,-185
16,76,60,-46,-22,68,-31,-134,-105,122,-162,-185
16,77,61,-46,-22,69,-31,-134,-105,123,-162,-185
16,79,63,-47,-23,71,-32,-132,-105,124,-161,-183
16,80,64,-48,-24,72,-34,-133,-107,124,-162,-183
15,80,65,-47,-25,73,-33,-132,-106,125,-161,-182
16,80,64,-48,-24,72,-34,-132,-105,124,-162,-183
17,80,63,-48,-23,72,-34,-132,-105,124,-162,-184
18,79,61,-48,-21,70,-34,-133,-104,124,-162,-184
17,78,61,-47,-22,70,-33,-132,-102,124,-162,-184
17,77,60,-47,-21,69,-33,-133,-102,124,-163,-184
16,76,60,-46,-22,68,-32,-131,-101,126,-162,-183
17,78,61,-47,-22,70,-34,-131,-102,127,-161,-183
18,79,61,-48,-21,70,-35,-130,-102,127,-161,-182
18,80,62,-49,-22,71,-35,-129,-102,129,-159,-180
19,81,62,-50,-21,72,-36,-130,-103,129,-159,-180
19,80,61,-49,-21,71,-36,-130,-103,128,-160,-180
18,78,60,-48,-21,69,-36,-130,-102,128,-160,-181
17,76,59,-46,-21,68,-36,-131,-100,128,-160,-182
18,76,58,-47,-20,67,-36,-131,-99,129,-161,-182
19,77,58,-48,-19,68,-36,-130,-98,129,-161,-182
19,78,59,-48,-20,69,-35,-129,-98,130,-160,-181
19,79,60,-49,-20,70,-33,-128,-98,131,-158,-181
19,79,60,-49,-20,70,-32,-127,-99,132,-157,-180
19,80,61,-49,-21,71,-33,-127,-100,132,-157,-180
19,80,61,-49,-21,71,-34,-128,-101,132,-157,-181
19,79,60,-49,-20,70,-34,-127,-100,132,-156,-180
20,78,58,-49,-19,68,-34,-128,-99,132,-156,-180
21,79,58,-50,-18,69,-35,-129,-98,132,-157,-181
22,79,57,-50,-17,68,-34,-128,-96,132,-157,-181
22,80,58,-51,-18,69,-34,-129,-96,132,-158,-181
22,80,58,-51,-18,69,-34,-129,-96,133,-157,-181
21,80,59,-50,-19,70,-34,-127,-96,135,-155,-179
21,80,59,-50,-19,70,-36,-127,-96,135,-154,-178
21,81,60,-51,-19,71,-38,-127,-98,135,-154,-178
22,82,60,-52,-19,71,-38,-126,-97,136,-153,-177
23,82,59,-52,-18,71,-39,-126,-96,136,-153,-177
24,81,57,-52,-16,69,-38,-126,-95,136,-153,-178
25,81,56,-53,-15,69,-37,-127,-94,137,-154,-178
25,81,56,-53,-15,69,-36,-126,-93,137,-154,-178
25,81,56,-53,-15,69,-35,-126,-92,137,-154,-178
24,81,57,-52,-16,69,-36,-126,-94,138,-154,-178
24,81,57,-52,-16,69,-37,-126,-95,139,-153,-177
24,82,58,-53,-17,70,-38,-125,-95,140,-152,-177
24,83,59,-53,-17,71,-38,-123,-95,141,-151,-176
24,83,59,-53,-17,71,-38,-123,-95,142,-150,-175
25,83,58,-54,-16,71,-38,-125,-95,141,-151,-176
26,83,57,-54,-15,70,-38,-126,-95,141,-151,-176
27,82,55,-54,-14,69,-38,-126,-94,141,-151,-176
28,82,54,-55,-13,68,-38,-125,-92,142,-151,-175
28,82,54,-55,-13,68,-37,-124,-91,142,-150,-175
28,82,54,-55,-13,68,-38,-123,-92,143,-150,-174
27,82,55,-54,-14,69,-39,-122,-93,144,-149,-173
26,83,57,-54,-15,70,-40,-122,-93,145,-148,-172
27,85,58,-56,-15,72,-41,-122,-94,145,-148,-172
28,86,58,-57,-15,72,-43,-122,-94,146,-147,-171
30,86,56,-58,-13,71,-43,-122,-93,147,-147,-171
30,86,56,-58,-13,71,-44,-122,-92,147,-147,-171
31,86,55,-58,-12,71,-44,-124,-93,146,-149,-173
31,85,54,-58,-11,70,-43,-123,-91,147,-148,-172
31,85,54,-58,-11,70,-43,-122,-91,147,-148,-173
30,85,55,-57,-12,70,-43,-121,-91,148,-148,-172
30,86,56,-58,-13,71,-44,-120,-91,150,-147,-171
30,87,57,-58,-13,72,-46,-120,-92,151,-146,-171
30,88,58,-59,-14,73,-47,-119,-92,152,-145,-169
31,88,57,-59,-13,73,-49,-118,-92,153,-144,-169
32,89,57,-60,-12,73,-51,-119,-92,152,-144,-169
33,88,55,-60,-11,72,-51,-119,-91,153,-144,-169
33,88,55,-60,-11,72,-50,-119,-91,154,-145,-169
33,87,54,-60,-10,71,-50,-119,-90,154,-145,-170
32,87,55,-59,-11,71,-48,-117,-88,156,-143,-169
32,88,56,-60,-12,72,-49,-116,-89,156,-143,-168
33,89,56,-61,-11,73,-51,-116,-90,157,-142,-167
34,90,56,-62,-11,73,-53,-115,-90,158,-141,-167
35,92,57,-63,-11,75,-55,-114,-90,160,-140,-166
36,93,57,-64,-10,75,-56,-114,-90,162,-138,-165
37,93,56,-65,-9,75,-57,-113,-89,162,-138,-165
38,93,55,-65,-8,74,-57,-113,-88,163,-138,-165
39,93,54,-66,-7,74,-57,-114,-88,164,-139,-165
40,93,53,-66,-6,73,-57,-113,-86,165,-139,-165
40,92,52,-66,-6,72,-57,-112,-85,166,-138,-164
39,93,54,-66,-7,74,-58,-111,-86,168,-137,-164
39,94,55,-66,-8,75,-59,-109,-87,170,-135,-162
40,95,55,-67,-7,75,-61,-109,-87,171,-134,-161
41,96,55,-68,-7,76,-63,-107,-87,173,-132,-160
42,97,55,-69,-6,76,-65,-107,-88,174,-131,-159
43,97,54,-70,-5,76,-66,-105,-86,176,-130,-158
45,97,52,-71,-3,75,-67,-105,-86,177,-130,-158
46,97,51,-71,-2,74,-66,-105,-85,179,-129,-157
47,98,51,-72,-2,75,-66,-105,-84,181,-128,-156
48,100,52,-74,-2,76,-67,-104,-84,183,-127,-155
49,101,52,-75,-1,77,-69,-102,-84,186,-126,-154
50,102,52,-76,-1,77,-70,-100,-84,189,-123,-151
51,103,52,-77,0,78,-72,-99,-85,191,-121,-150
52,104,52,-78,0,78,-74,-98,-86,193,-119,-148
53,105,52,-79,1,79,-75,-97,-85,196,-116,-146
55,106,51,-80,2,79,-77,-97,-85,198,-116,-146
57,106,49,-81,4,78,-79,-98,-85,199,-116,-145
58,106,48,-82,5,77,-79,-98,-85,202,-114,-144
59,107,48,-83,6,78,-80,-98,-85,203,-114,-143
59,108,49,-83,5,79,-81,-96,-84,206,-111,-141
61,109,48,-85,7,79,-83,-96,-84,210,-110,-139
63,111,48,-87,8,80,-86,-96,-86,212,-108,-137
63,112,49,-87,7,81,-88,-94,-86,216,-105,-134
64,114,50,-89,7,82,-91,-94,-87,218,-103,-133
66,115,49,-90,9,82,-92,-94,-88,221,-101,-131
68,116,48,-92,10,82,-94,-94,-88,223,-99,-129
70,117,47,-93,12,82,-96,-95,-88,226,-98,-128
71,117,46,-94,13,82,-98,-95,-88,229,-96,-126
73,118,45,-95,14,82,-100,-96,-88,233,-94,-125
74,120,46,-97,14,83,-102,-96,-88,236,-92,-123
75,121,46,-98,15,84,-105,-96,-88,239,-90,-121
76,123,47,-99,15,85,-107,-96,-89,242,-87,-118
77,125,48,-101,15,87,-107,-95,-89,246,-84,-116
78,127,49,-102,15,88,-107,-95,-90,249,-81,-114
79,128,49,-103,15,89,-110,-97,-92,252,-80,-113
80,129,49,-104,16,89,-111,-98,-92,255,-78,-111
82,130,48,-106,17,89,-112,-99,-91,257,-76,-109
84,130,46,-107,19,88,-114,-99,-91,260,-75,-108
84,131,47,-107,19,89,-114,-99,-90,262,-73,-107
84,132,48,-108,18,90,-116,-101,-91,264,-73,-107
85,133,48,-109,19,91,-116,-101,-90,266,-72,-106
86,134,48,-110,19,91,-117,-101,-90,268,-71,-105
86,136,50,-111,18,93,-119,-101,-90,269,-70,-104
86,137,51,-111,18,94,-119,-102,-90,269,-69,-104
85,138,53,-111,16,96,-120,-104,-90,268,-69,-104
85,138,53,-111,16,96,-119,-106,-89,268,-70,-104
85,138,53,-111,16,96,-118,-107,-88,266,-70,-105
84,138,54,-111,15,96,-116,-108,-87,264,-72,-106
82,138,56,-110,13,97,-113,-110,-85,262,-73,-108
79,137,58,-108,11,98,-112,-111,-84,260,-74,-109
78,137,59,-107,10,98,-110,-111,-83,257,-76,-110
76,137,61,-106,8,99,-108,-112,-84,252,-78,-112
74,137,63,-105,6,100,-105,-113,-85,248,-80,-114
71,136,65,-103,3,101,-102,-116,-87,243,-83,-116
68,134,66,-101,1,100,-98,-118,-87,238,-85,-118
66,133,67,-99,0,100,-95,-120,-87,233,-88,-120
63,131,68,-97,-2,100,-91,-122,-87,227,-92,-122
61,128,67,-94,-3,98,-89,-125,-89,221,-97,-127
58,125,67,-91,-4,96,-85,-127,-89,215,-100,-130
55,124,69,-89,-7,97,-82,-128,-89,210,-102,-133
52,122,70,-87,-9,96,-80,-130,-91,205,-106,-136
50,121,71,-85,-10,96,-78,-132,-93,200,-110,-138
47,120,73,-83,-13,97,-75,-133,-94,196,-112,-139
44,118,74,-81,-15,96,-74,-135,-96,191,-114,-141
42,117,75,-79,-16,96,-74,-137,-98,186,-117,-144
40,115,75,-77,-17,95,-72,-139,-98,181,-119,-146
39,114,75,-76,-18,95,-72,-142,-100,174,-124,-149
38,112,74,-75,-18,93,-69,-144,-101,170,-126,-152
37,110,73,-73,-18,92,-66,-145,-102,167,-129,-153
35,109,74,-72,-19,92,-64,-147,-104,163,-131,-155
34,108,74,-71,-20,91,-62,-148,-105,160,-132,-156
33,107,74,-70,-20,91,-61,-149,-107,157,-133,-157
31,106,75,-68,-22,91,-61,-149,-108,155,-134,-158
30,105,75,-67,-22,90,-62,-151,-110,151,-136,-159
29,104,75,-66,-23,90,-61,-152,-111,149,-138,-161
28,103,75,-65,-23,89,-59,-152,-112,146,-139,-162
27,102,75,-64,-24,89,-58,-154,-114,143,-141,-163
27,101,74,-64,-23,88,-56,-154,-114,141,-142,-164
26,100,74,-63,-24,87,-56,-156,-115,138,-144,-167
25,99,74,-62,-24,87,-55,-157,-116,136,-145,-168
23,98,75,-60,-26,87,-54,-157,-117,136,-146,-167
22,97,75,-59,-26,86,-53,-156,-119,135,-146,-166
20,97,77,-58,-28,87,-54,-157,-121,134,-147,-167
19,97,78,-58,-29,88,-53,-157,-121,133,-146,-167
20,97,77,-58,-28,87,-54,-159,-123,131,-148,-169
20,97,77,-58,-28,87,-54,-159,-123,130,-148,-170
21,96,75,-58,-27,86,-54,-159,-123,128,-149,-171
21,95,74,-58,-26,85,-53,-159,-122,127,-150,-171
20,94,74,-57,-27,84,-53,-159,-122,126,-151,-172
19,94,75,-56,-28,85,-51,-158,-121,126,-151,-171
20,95,75,-57,-27,85,-52,-158,-123,126,-152,-171
20,96,76,-58,-28,86,-52,-158,-123,127,-151,-170
19,97,78,-58,-29,88,-53,-158,-124,126,-150,-170
18,97,79,-57,-30,88,-53,-158,-125,125,-150,-170
19,97,78,-58,-29,88,-53,-158,-125,125,-150,-170
19,96,77,-57,-29,87,-54,-159,-125,124,-151,-171
19,95,76,-57,-28,86,-55,-159,-125,122,-152,-172
19,94,75,-56,-28,85,-53,-157,-124,123,-152,-172
19,94,75,-56,-28,85,-51,-156,-123,122,-153,-173
19,93,74,-56,-27,84,-50,-156,-124,122,-153,-173
18,93,75,-55,-28,84,-49,-157,-124,122,-153,-172
18,94,76,-56,-29,85,-49,-156,-124,123,-152,-172
18,95,77,-56,-29,86,-50,-155,-124,123,-151,-171
18,95,77,-56,-29,86,-51,-155,-124,123,-151,-170
18,96,78,-57,-30,87,-52,-156,-125,122,-153,-171
19,95,76,-57,-28,86,-52,-156,-125,121,-153,-172
19,95,76,-57,-28,86,-53,-156,-125,120,-154,-172
19,94,75,-56,-28,85,-52,-156,-124,120,-154,-172
18,93,75,-55,-28,84,-52,-156,-123,120,-154,-174
17,93,76,-55,-29,85,-51,-154,-122,120,-153,-174
17,93,76,-55,-29,85,-52,-154,-123,120,-153,-174
17,94,77,-55,-30,86,-53,-154,-124,120,-154,-174
18,95,77,-56,-29,86,-52,-153,-123,121,-153,-173
18,96,78,-57,-30,87,-52,-153,-123,121,-152,-172
18,95,77,-56,-29,86,-52,-153,-122,122,-152,-172
18,95,77,-56,-29,86,-53,-153,-122,121,-153,-172
18,94,76,-56,-29,85,-53,-153,-122,120,-154,-173
19,94,75,-56,-28,85,-53,-153,-122,120,-155,-174
19,93,74,-56,-27,84,-52,-153,-122,119,-155,-174
19,93,74,-56,-27,84,-52,-153,-122,119,-156,-174
19,94,75,-56,-28,85,-52,-152,-122,120,-155,-173
19,94,75,-56,-28,85,-53,-151,-121,121,-155,-173
18,94,76,-56,-29,85,-53,-151,-121,121,-154,-173
17,93,76,-55,-29,85,-52,-150,-121,122,-153,-172
17,93,76,-55,-29,85,-52,-150,-122,121,-154,-172
16,93,77,-54,-30,85,-52,-151,-122,120,-155,-173
16,93,77,-54,-30,85,-52,-151,-122,119,-155,-173
16,92,76,-54,-30,84,-52,-151,-121,118,-155,-174
16,92,76,-54,-30,84,-53,-151,-121,119,-156,-174
17,92,75,-54,-29,84,-53,-150,-120,120,-155,-174
18,92,74,-55,-28,83,-52,-150,-120,120,-155,-173
18,92,74,-55,-28,83,-52,-149,-119,121,-154,-172
18,93,75,-55,-28,84,-52,-149,-120,121,-153,-172
19,94,75,-56,-28,85,-52,-148,-120,122,-152,-171
19,96,77,-57,-29,87,-53,-150,-121,120,-154,-172
19,96,77,-57,-29,87,-52,-151,-121,119,-155,-174
18,93,75,-55,-28,84,-50,-150,-120,119,-155,-173
18,91,73,-54,-27,82,-49,-149,-120,120,-155,-173
18,91,73,-54,-27,82,-49,-149,-120,119,-155,-173
18,91,73,-54,-27,82,-48,-149,-120,118,-155,-173
18,91,73,-54,-27,82,-48,-149,-119,119,-155,-173
18,92,74,-55,-28,83,-49,-149,-119,119,-154,-173
18,93,75,-55,-28,84,-51,-150,-120,119,-155,-174
18,93,75,-55,-28,84,-52,-150,-121,119,-155,-174
18,93,75,-55,-28,84,-52,-150,-121,118,-155,-174
18,93,75,-55,-28,84,-51,-151,-122,117,-156,-174
18,93,75,-55,-28,84,-50,-151,-122,117,-157,-174
18,92,74,-55,-28,83,-50,-150,-121,118,-156,-174
18,91,73,-54,-27,82,-51,-150,-121,117,-157,-174
18,91,73,-54,-27,82,-51,-151,-122,116,-157,-175
17,90,73,-53,-28,82,-51,-151,-122,117,-157,-175
16,91,75,-53,-29,83,-51,-152,-123,117,-157,-176
16,91,75,-53,-29,83,-51,-152,-124,117,-157,-176
17,92,75,-54,-29,84,-52,-153,-125,116,-157,-176
18,92,74,-55,-28,83,-51,-153,-125,116,-157,-175
18,92,74,-55,-28,83,-51,-152,-124,116,-157,-175
19,92,73,-55,-27,83,-51,-153,-124,115,-158,-175
19,91,72,-55,-26,82,-49,-152,-124,115,-159,-175
18,90,72,-54,-27,81,-49,-153,-125,114,-160,-176
16,89,73,-52,-28,81,-48,-153,-124,114,-160,-176
17,89,72,-53,-27,81,-49,-154,-125,114,-160,-176
17,89,72,-53,-27,81,-49,-154,-126,114,-159,-176
16,90,74,-53,-29,82,-49,-154,-128,114,-158,-176
15,90,75,-52,-30,83,-50,-154,-129,114,-158,-176
15,90,75,-52,-30,83,-51,-155,-129,114,-159,-176
15,90,75,-52,-30,83,-51,-155,-129,113,-159,-177
15,90,75,-52,-30,83,-50,-155,-128,113,-160,-176
16,90,74,-53,-29,82,-50,-155,-128,113,-160,-176
17,89,72,-53,-27,81,-51,-156,-128,112,-160,-176
16,89,73,-52,-28,81,-52,-157,-129,111,-160,-177
16,88,72,-52,-28,80,-51,-156,-129,112,-160,-176
16,88,72,-52,-28,80,-50,-157,-130,112,-160,-176
16,89,73,-52,-28,81,-50,-158,-132,111,-161,-177
15,89,74,-52,-29,82,-49,-158,-131,112,-159,-176
15,90,75,-52,-30,83,-51,-159,-133,112,-160,-176
15,90,75,-52,-30,83,-51,-159,-133,112,-160,-176
16,89,73,-52,-28,81,-51,-159,-132,111,-161,-176
16,89,73,-52,-28,81,-51,-159,-131,111,-161,-176
17,88,71,-52,-27,80,-51,-160,-132,110,-162,-176
16,88,72,-52,-28,80,-50,-159,-132,110,-161,-175
16,89,73,-52,-28,81,-51,-160,-133,109,-162,-176
16,89,73,-52,-28,81,-51,-160,-133,110,-161,-176
16,89,73,-52,-28,81,-51,-160,-134,110,-161,-176
15,89,74,-52,-29,82,-52,-159,-135,111,-160,-176
14,89,75,-51,-30,82,-53,-160,-136,110,-161,-176
14,89,75,-51,-30,82,-54,-161,-136,109,-162,-177
14,89,75,-51,-30,82,-53,-161,-136,109,-161,-177
15,89,74,-52,-29,82,-53,-160,-135,109,-161,-176
15,88,73,-51,-29,81,-53,-160,-134,109,-162,-176
15,88,73,-51,-29,81,-53,-161,-135,109,-162,-176
14,87,73,-50,-29,80,-51,-160,-135,109,-161,-176
14,88,74,-51,-30,81,-50,-162,-136,109,-161,-177
15,89,74,-52,-29,82,-50,-161,-136,110,-161,-176
15,89,74,-52,-29,82,-50,-161,-136,110,-161,-175
16,89,73,-52,-28,81,-50,-161,-136,110,-161,-176
16,89,73,-52,-28,81,-49,-161,-136,109,-161,-176
16,88,72,-52,-28,80,-49,-160,-135,110,-161,-175
15,87,72,-51,-28,80,-49,-162,-135,109,-162,-176
13,87,74,-50,-30,81,-48,-161,-135,110,-161,-175
"
		14","
		87","
		73","
		-50","
		-29","
		80","
		-48","
		-161","
		-135","
		110","
		-161","
		-176"
14,87,73,-50,-29,80,-49,-160,-135,110,-161,-176
14,87,73,-50,-29,80,-50,-161,-136,110,-161,-176
13,87,74,-50,-30,81,-51,-161,-137,109,-161,-176
13,88,75,-50,-31,82,-51,-161,-137,109,-161,-176
14,88,74,-51,-30,81,-52,-162,-138,108,-162,-177
15,88,73,-51,-29,81,-51,-161,-137,109,-161,-176
16,88,72,-52,-28,80,-50,-161,-136,109,-160,-176
15,88,73,-51,-29,81,-52,-161,-136,108,-161,-176
14,87,73,-50,-29,80,-52,-161,-136,108,-161,-175
14,86,72,-50,-29,79,-52,-161,-136,107,-162,-176
15,85,70,-50,-27,78,-51,-162,-137,107,-162,-177
14,86,72,-50,-29,79,-50,-162,-137,108,-162,-177
13,86,73,-49,-30,80,-50,-162,-138,107,-162,-177
13,87,74,-50,-30,81,-50,-162,-139,107,-161,-177
13,87,74,-50,-30,81,-51,-162,-139,107,-161,-177
13,87,74,-50,-30,81,-51,-162,-138,107,-160,-177
13,86,73,-49,-30,80,-51,-161,-138,107,-160,-177
14,86,72,-50,-29,79,-50,-161,-138,107,-161,-177
14,86,72,-50,-29,79,-49,-162,-138,106,-162,-176
13,85,72,-49,-29,79,-48,-161,-138,107,-162,-175
13,85,72,-49,-29,79,-48,-161,-138,107,-162,-176
14,86,72,-50,-29,79,-50,-162,-139,106,-163,-177
14,87,73,-50,-29,80,-50,-161,-138,106,-162,-177
14,87,73,-50,-29,80,-50,-162,-139,107,-162,-177
13,86,73,-49,-30,80,-50,-162,-140,106,-162,-177
13,86,73,-49,-30,80,-50,-162,-140,106,-162,-177
14,87,73,-50,-29,80,-50,-162,-139,106,-161,-176
14,86,72,-50,-29,79,-50,-162,-139,106,-161,-176
14,85,71,-49,-28,78,-50,-163,-139,105,-163,-177
13,83,70,-48,-28,77,-50,-163,-138,105,-163,-176
13,84,71,-48,-29,78,-49,-162,-138,106,-162,-177
14,85,71,-49,-28,78,-49,-162,-139,106,-162,-177
14,87,73,-50,-29,80,-48,-162,-139,106,-162,-176
14,87,73,-50,-29,80,-48,-162,-140,106,-161,-175
14,87,73,-50,-29,80,-49,-162,-140,106,-161,-176
14,86,72,-50,-29,79,-50,-162,-140,106,-162,-176
13,86,73,-49,-30,80,-51,-163,-140,105,-163,-177
13,85,72,-49,-29,79,-49,-162,-139,106,-162,-176
13,84,71,-48,-29,78,-48,-162,-139,105,-162,-177
13,84,71,-48,-29,78,-47,-163,-139,104,-163,-177
12,84,72,-48,-30,78,-47,-163,-140,104,-163,-178
12,84,72,-48,-30,78,-48,-163,-141,104,-162,-177
13,85,72,-49,-29,79,-49,-162,-141,105,-162,-177
13,86,73,-49,-30,80,-49,-163,-141,105,-162,-177
14,87,73,-50,-29,80,-48,-162,-140,105,-161,-176
13,87,74,-50,-30,81,-48,-162,-140,104,-161,-176
12,85,73,-48,-30,79,-49,-163,-141,103,-162,-177
11,84,73,-47,-31,79,-48,-163,-142,103,-162,-177
12,84,72,-48,-30,78,-48,-164,-141,103,-163,-177
13,85,72,-49,-29,79,-48,-163,-141,104,-162,-177
13,85,72,-49,-29,79,-48,-163,-141,104,-162,-177
14,86,72,-50,-29,79,-48,-163,-142,104,-162,-178
13,86,73,-49,-30,80,-49,-163,-142,105,-162,-177
13,86,73,-49,-30,80,-51,-163,-143,104,-163,-178
12,86,74,-49,-31,80,-51,-163,-143,104,-163,-178
11,85,74,-48,-31,80,-50,-163,-143,103,-163,-179
11,85,74,-48,-31,80,-48,-164,-143,102,-164,-179
11,84,73,-47,-31,79,-46,-163,-142,102,-163,-179
11,84,73,-47,-31,79,-46,-163,-142,103,-162,-178
11,85,74,-48,-31,80,-47,-164,-142,103,-163,-179
11,85,74,-48,-31,80,-47,-164,-143,102,-163,-179
10,85,75,-47,-32,80,-47,-163,-143,103,-163,-179
9,84,75,-46,-33,80,-48,-164,-144,102,-163,-180
9,84,75,-46,-33,80,-49,-164,-144,102,-163,-180
10,85,75,-47,-32,80,-49,-164,-144,102,-163,-180
11,85,74,-48,-31,80,-50,-165,-144,102,-164,-180
11,86,75,-48,-32,81,-50,-164,-143,102,-164,-179
12,86,74,-49,-31,80,-51,-164,-143,102,-164,-179
12,85,73,-48,-30,79,-50,-164,-143,101,-164,-179
12,85,73,-48,-30,79,-49,-164,-143,101,-164,-179
12,85,73,-48,-30,79,-48,-164,-144,102,-164,-179
11,85,74,-48,-31,80,-47,-164,-144,102,-164,-179
10,84,74,-47,-32,79,-47,-164,-144,102,-164,-178
11,84,73,-47,-31,79,-48,-165,-145,101,-163,-178
12,84,72,-48,-30,78,-48,-165,-146,102,-164,-179
12,85,73,-48,-30,79,-48,-165,-145,102,-164,-178
12,85,73,-48,-30,79,-48,-164,-145,102,-164,-178
12,84,72,-48,-30,78,-48,-164,-145,101,-164,-179
12,84,72,-48,-30,78,-48,-165,-145,101,-164,-178
11,84,73,-47,-31,79,-47,-164,-144,102,-163,-177
10,84,74,-47,-32,79,-47,-165,-145,101,-164,-178
9,83,74,-46,-32,79,-47,-164,-145,102,-164,-177
10,84,74,-47,-32,79,-47,-165,-146,101,-164,-178
11,86,75,-48,-32,81,-48,-165,-146,101,-164,-178
12,85,73,-48,-30,79,-48,-165,-145,101,-163,-177
11,84,73,-47,-31,79,-49,-165,-145,101,-163,-177
9,84,75,-46,-33,80,-50,-166,-145,100,-165,-179
9,83,74,-46,-32,79,-48,-165,-144,101,-164,-178
10,82,72,-46,-31,77,-46,-165,-144,101,-165,-177
9,82,73,-45,-32,78,-46,-165,-144,101,-165,-178
9,81,72,-45,-31,77,-47,-166,-144,101,-166,-179
9,81,72,-45,-31,77,-48,-166,-145,101,-166,-179
9,82,73,-45,-32,78,-48,-165,-145,101,-165,-179
10,83,73,-46,-31,78,-50,-166,-145,100,-166,-179
10,83,73,-46,-31,78,-49,-165,-145,101,-165,-179
10,83,73,-46,-31,78,-49,-165,-144,102,-164,-178
10,83,73,-46,-31,78,-49,-165,-145,101,-164,-178
10,83,73,-46,-31,78,-49,-166,-147,100,-166,-179
10,82,72,-46,-31,77,-49,-165,-145,101,-165,-178
11,82,71,-46,-30,77,-49,-166,-145,100,-166,-179
12,83,71,-47,-29,77,-47,-165,-145,100,-166,-178
12,83,71,-47,-29,77,-46,-165,-146,101,-164,-178
12,84,72,-48,-30,78,-48,-166,-147,101,-164,-178
12,84,72,-48,-30,78,-49,-166,-147,101,-164,-178
12,84,72,-48,-30,78,-49,-166,-146,101,-164,-178
11,83,72,-47,-30,78,-49,-165,-145,101,-163,-177
10,82,72,-46,-31,77,-47,-164,-145,102,-163,-177
10,82,72,-46,-31,77,-47,-165,-145,102,-164,-177
10,82,72,-46,-31,77,-46,-164,-144,102,-163,-177
11,82,71,-46,-30,77,-47,-165,-144,101,-164,-177
11,83,72,-47,-30,78,-47,-166,-145,101,-164,-178
10,82,72,-46,-31,77,-47,-165,-146,101,-164,-178
10,82,72,-46,-31,77,-48,-165,-146,100,-164,-179
11,83,72,-47,-30,78,-48,-165,-147,100,-164,-179
12,85,73,-48,-30,79,-48,-165,-147,101,-163,-178
12,85,73,-48,-30,79,-49,-165,-146,101,-163,-178
11,84,73,-47,-31,79,-49,-166,-146,101,-163,-178
11,83,72,-47,-30,78,-49,-165,-146,100,-163,-178
12,83,71,-47,-29,77,-48,-165,-145,101,-162,-176
12,83,71,-47,-29,77,-48,-165,-144,101,-162,-177
12,83,71,-47,-29,77,-48,-166,-145,101,-163,-178
11,82,71,-46,-30,77,-48,-166,-146,101,-163,-178
12,83,71,-47,-29,77,-47,-165,-145,102,-162,-177
12,85,73,-48,-30,79,-48,-165,-146,101,-162,-177
12,85,73,-48,-30,79,-47,-165,-146,101,-162,-178
11,85,74,-48,-31,80,-47,-166,-146,101,-163,-178
12,85,73,-48,-30,79,-48,-166,-145,101,-164,-178
12,85,73,-48,-30,79,-48,-167,-145,101,-164,-178
12,84,72,-48,-30,78,-48,-166,-144,101,-164,-178
13,84,71,-48,-29,78,-49,-166,-144,101,-164,-178
13,84,71,-48,-29,78,-49,-166,-144,101,-164,-178
13,84,71,-48,-29,78,-48,-166,-145,101,-164,-179
11,84,73,-47,-31,79,-48,-166,-145,102,-163,-178
11,84,73,-47,-31,79,-48,-166,-145,102,-163,-178
12,85,73,-48,-30,79,-48,-167,-145,101,-164,-178
12,85,73,-48,-30,79,-47,-166,-144,101,-163,-178
12,85,73,-48,-30,79,-45,-167,-144,101,-164,-178
12,85,73,-48,-30,79,-43,-167,-145,101,-164,-179
12,84,72,-48,-30,78,-44,-167,-144,101,-164,-179
12,84,72,-48,-30,78,-45,-167,-143,101,-164,-179
12,84,72,-48,-30,78,-46,-166,-144,101,-165,-179
12,84,72,-48,-30,78,-46,-166,-144,101,-165,-178
13,84,71,-48,-29,78,-46,-166,-145,102,-165,-178
13,85,72,-49,-29,79,-46,-165,-145,102,-164,-177
13,85,72,-49,-29,79,-47,-165,-144,103,-163,-176
13,85,72,-49,-29,79,-48,-165,-144,102,-164,-177
13,84,71,-48,-29,78,-49,-166,-145,101,-165,-178
12,84,72,-48,-30,78,-49,-167,-146,102,-165,-179
13,84,71,-48,-29,78,-49,-166,-145,102,-165,-179
13,84,71,-48,-29,78,-48,-165,-144,102,-164,-178
14,85,71,-49,-28,78,-49,-166,-145,101,-164,-178
14,85,71,-49,-28,78,-49,-166,-145,101,-164,-178
14,85,71,-49,-28,78,-49,-167,-145,102,-165,-178
13,85,72,-49,-29,79,-49,-166,-145,102,-164,-178
13,85,72,-49,-29,79,-51,-166,-145,102,-164,-178
13,86,73,-49,-30,80,-53,-167,-147,100,-166,-179
13,85,72,-49,-29,79,-52,-166,-147,101,-165,-179
12,85,73,-48,-30,79,-52,-167,-147,100,-166,-179
11,84,73,-47,-31,79,-50,-167,-147,100,-166,-179
11,84,73,-47,-31,79,-49,-166,-147,101,-166,-179
12,85,73,-48,-30,79,-50,-166,-147,101,-167,-179
13,86,73,-49,-30,80,-51,-167,-148,100,-167,-180
13,85,72,-49,-29,79,-50,-167,-148,101,-166,-179
14,85,71,-49,-28,78,-51,-168,-149,100,-166,-180
14,86,72,-50,-29,79,-51,-168,-149,100,-166,-180
14,86,72,-50,-29,79,-52,-167,-149,100,-165,-180
13,85,72,-49,-29,79,-51,-166,-148,101,-164,-179
12,85,73,-48,-30,79,-52,-167,-148,100,-165,-179
11,84,73,-47,-31,79,-51,-166,-148,101,-165,-179
11,83,72,-47,-30,78,-51,-167,-148,101,-166,-179
11,83,72,-47,-30,78,-52,-167,-148,101,-166,-179
11,83,72,-47,-30,78,-53,-167,-149,100,-166,-179
12,83,71,-47,-29,77,-53,-167,-149,100,-165,-179
12,84,72,-48,-30,78,-53,-167,-150,100,-165,-179
11,85,74,-48,-31,80,-52,-167,-150,100,-166,-179
10,84,74,-47,-32,79,-52,-166,-148,101,-165,-178
10,84,74,-47,-32,79,-53,-166,-148,101,-165,-179
11,84,73,-47,-31,79,-53,-166,-148,101,-165,-179
11,83,72,-47,-30,78,-53,-167,-148,100,-166,-179
11,83,72,-47,-30,78,-52,-167,-148,100,-166,-179
12,84,72,-48,-30,78,-53,-168,-148,100,-166,-180
12,84,72,-48,-30,78,-52,-167,-148,100,-166,-179
11,83,72,-47,-30,78,-52,-167,-148,100,-165,-179
9,83,74,-46,-32,79,-52,-166,-149,100,-165,-179
9,83,74,-46,-32,79,-53,-167,-149,100,-165,-179
10,83,73,-46,-31,78,-53,-167,-150,99,-166,-180
11,83,72,-47,-30,78,-53,-166,-148,100,-166,-179
12,84,72,-48,-30,78,-54,-166,-148,100,-167,-179
12,84,72,-48,-30,78,-54,-166,-148,100,-167,-179
11,84,73,-47,-31,79,-54,-166,-147,101,-166,-179
11,84,73,-47,-31,79,-55,-166,-148,100,-167,-180
11,84,73,-47,-31,79,-55,-165,-148,100,-166,-180
11,84,73,-47,-31,79,-54,-165,-148,100,-165,-180
11,84,73,-47,-31,79,-52,-165,-148,101,-165,-179
11,84,73,-47,-31,79,-51,-166,-148,100,-166,-178
11,83,72,-47,-30,78,-52,-166,-148,100,-166,-179
11,82,71,-46,-30,77,-52,-166,-148,100,-167,-179
11,81,70,-46,-29,76,-52,-165,-146,101,-166,-179
11,81,70,-46,-29,76,-52,-165,-146,101,-166,-179
11,81,70,-46,-29,76,-53,-165,-146,101,-166,-179
10,81,71,-45,-30,76,-53,-166,-147,100,-167,-180
10,81,71,-45,-30,76,-53,-166,-147,100,-167,-181
9,81,72,-45,-31,77,-55,-166,-148,100,-167,-180
10,81,71,-45,-30,76,-56,-166,-148,100,-166,-180
11,82,71,-46,-30,77,-56,-167,-149,99,-167,-181
10,82,72,-46,-31,77,-53,-166,-148,100,-166,-180
9,81,72,-45,-31,77,-54,-167,-149,99,-166,-181
8,81,73,-44,-32,77,-53,-167,-149,99,-167,-181
9,81,72,-45,-31,77,-54,-168,-150,98,-168,-182
9,81,72,-45,-31,77,-54,-167,-149,98,-167,-181
10,81,71,-45,-30,76,-54,-167,-149,99,-167,-181
10,81,71,-45,-30,76,-53,-167,-150,99,-168,-182
10,81,71,-45,-30,76,-53,-167,-150,99,-168,-182
10,81,71,-45,-30,76,-54,-167,-150,99,-168,-181
10,81,71,-45,-30,76,-55,-166,-150,99,-167,-181
10,81,71,-45,-30,76,-55,-166,-150,98,-167,-180
10,81,71,-45,-30,76,-55,-166,-149,98,-167,-181
10,81,71,-45,-30,76,-56,-167,-149,98,-168,-181
9,81,72,-45,-31,77,-55,-167,-149,98,-168,-182
9,80,71,-44,-31,76,-54,-167,-148,99,-168,-181
9,80,71,-44,-31,76,-54,-167,-149,99,-168,-181
9,79,70,-44,-30,75,-54,-168,-150,98,-168,-182
9,79,70,-44,-30,75,-53,-167,-150,98,-168,-181
9,80,71,-44,-31,76,-53,-166,-150,99,-167,-180
9,81,72,-45,-31,77,-54,-167,-150,98,-167,-180
9,81,72,-45,-31,77,-54,-167,-150,98,-167,-181
9,81,72,-45,-31,77,-55,-167,-150,98,-168,-181
10,81,71,-45,-30,76,-55,-167,-150,98,-169,-181
9,80,71,-44,-31,76,-54,-167,-148,99,-168,-180
9,79,70,-44,-30,75,-54,-167,-148,99,-167,-180
10,79,69,-44,-29,74,-53,-167,-148,99,-167,-180
11,80,69,-45,-29,75,-54,-167,-149,99,-167,-180
11,81,70,-46,-29,76,-54,-167,-148,99,-167,-180
11,81,70,-46,-29,76,-54,-167,-148,99,-167,-180
10,81,71,-45,-30,76,-54,-167,-148,100,-167,-179
10,81,71,-45,-30,76,-54,-167,-148,100,-167,-179
9,81,72,-45,-31,77,-55,-167,-149,99,-167,-180
9,81,72,-45,-31,77,-55,-168,-150,98,-168,-181
9,80,71,-44,-31,76,-53,-168,-149,99,-168,-180
8,80,72,-44,-32,76,-54,-168,-149,98,-169,-181
8,79,71,-43,-31,75,-55,-168,-150,98,-169,-182
8,79,71,-43,-31,75,-56,-168,-150,97,-170,-182
8,80,72,-44,-32,76,-57,-167,-150,97,-169,-182
8,81,73,-44,-32,77,-55,-166,-150,98,-168,-181
9,81,72,-45,-31,77,-54,-167,-151,98,-168,-181
9,82,73,-45,-32,78,-54,-168,-151,98,-168,-181
9,82,73,-45,-32,78,-56,-168,-152,98,-168,-182
9,82,73,-45,-32,78,-57,-169,-152,97,-168,-182
8,82,74,-45,-33,78,-57,-168,-151,98,-168,-182
10,82,72,-46,-31,77,-56,-167,-150,98,-168,-182
10,81,71,-45,-30,76,-55,-166,-150,98,-168,-182
10,81,71,-45,-30,76,-55,-166,-150,97,-168,-182
8,80,72,-44,-32,76,-55,-167,-150,97,-167,-182
7,80,73,-43,-33,77,-56,-167,-151,97,-168,-182
7,80,73,-43,-33,77,-57,-167,-151,98,-167,-181
8,81,73,-44,-32,77,-57,-166,-151,98,-167,-181
8,81,73,-44,-32,77,-57,-166,-151,98,-168,-181
8,80,72,-44,-32,76,-57,-167,-151,97,-169,-181
7,80,73,-43,-33,77,-57,-167,-151,96,-169,-181
8,81,73,-44,-32,77,-56,-167,-151,97,-168,-180
9,81,72,-45,-31,77,-56,-168,-151,97,-168,-181
9,81,72,-45,-31,77,-57,-168,-152,97,-168,-181
9,81,72,-45,-31,77,-58,-168,-152,96,-168,-182
9,81,72,-45,-31,77,-58,-168,-153,97,-168,-181
10,81,71,-45,-30,76,-58,-168,-153,97,-168,-181
9,81,72,-45,-31,77,-57,-168,-153,97,-168,-181
8,80,72,-44,-32,76,-56,-167,-152,98,-168,-181
8,80,72,-44,-32,76,-56,-168,-152,97,-169,-181
9,80,71,-44,-31,76,-56,-168,-152,97,-169,-181
8,80,72,-44,-32,76,-56,-169,-152,97,-169,-181
8,79,71,-43,-31,75,-56,-169,-153,97,-170,-181
8,79,71,-43,-31,75,-57,-169,-154,96,-170,-182
7,79,72,-43,-32,76,-56,-168,-153,97,-169,-180
8,80,72,-44,-32,76,-55,-168,-153,97,-169,-180
8,81,73,-44,-32,77,-53,-166,-152,98,-168,-178
8,82,74,-45,-33,78,-54,-168,-153,98,-168,-179
8,82,74,-45,-33,78,-54,-168,-152,98,-167,-179
9,83,74,-46,-32,79,-53,-167,-151,100,-167,-178
11,84,73,-47,-31,79,-53,-166,-151,100,-166,-178
11,86,75,-48,-32,81,-52,-165,-150,100,-166,-178
11,87,76,-49,-32,82,-51,-164,-149,101,-165,-177
11,88,77,-49,-33,83,-50,-164,-148,101,-165,-177
12,89,77,-50,-32,83,-50,-163,-147,102,-165,-176
12,89,77,-50,-32,83,-50,-162,-147,102,-164,-176
13,90,77,-51,-32,84,-51,-162,-147,102,-164,-176
14,91,77,-52,-31,84,-51,-161,-146,103,-164,-175
15,92,77,-53,-31,85,-49,-160,-145,104,-163,-175
15,93,78,-54,-31,86,-49,-160,-145,103,-164,-176
15,93,78,-54,-31,86,-48,-160,-145,102,-165,-176
15,93,78,-54,-31,86,-47,-160,-145,102,-165,-176
15,92,77,-53,-31,85,-44,-158,-145,104,-164,-175
14,92,78,-53,-32,85,-43,-157,-144,104,-164,-175
14,93,79,-53,-32,86,-41,-156,-143,104,-164,-175
14,94,80,-54,-33,87,-40,-157,-142,104,-164,-175
14,94,80,-54,-33,87,-41,-156,-142,105,-164,-174
15,93,78,-54,-31,86,-42,-155,-142,105,-164,-175
15,92,77,-53,-31,85,-42,-154,-141,106,-163,-174
16,92,76,-54,-30,84,-44,-154,-141,105,-164,-175
20,94,74,-57,-27,84,-46,-152,-139,107,-163,-173
"
		23","
		97","
		74","
		-60","
		-25","
		86","
		-51","
		-154","
		-138","
		108","
		-161","
		-171"
24,99,75,-61,-25,87,-56,-158,-138,109,-159,-169
25,103,78,-64,-26,91,-58,-163,-137,111,-156,-166
25,107,82,-66,-28,95,-60,-164,-135,112,-154,-165
25,109,84,-67,-29,97,-61,-163,-134,114,-153,-164
24,107,83,-65,-29,95,-63,-162,-133,115,-153,-163
25,106,81,-65,-28,94,-66,-162,-135,113,-153,-164
26,104,78,-65,-26,91,-68,-164,-138,111,-154,-166
24,101,77,-62,-26,89,-66,-164,-140,111,-155,-167
22,99,77,-60,-27,88,-65,-166,-141,109,-157,-167
21,100,79,-60,-29,90,-63,-167,-142,108,-157,-167
20,100,80,-60,-30,90,-62,-167,-143,107,-157,-167
19,99,80,-59,-30,90,-59,-166,-144,107,-158,-167
18,97,79,-57,-30,88,-59,-165,-144,106,-159,-169
18,95,77,-56,-29,86,-60,-165,-145,105,-160,-170
18,93,75,-55,-28,84,-60,-165,-146,105,-161,-172
18,93,75,-55,-28,84,-61,-165,-145,105,-162,-172
19,92,73,-55,-27,83,-62,-167,-146,104,-163,-173
19,91,72,-55,-26,82,-61,-167,-145,104,-163,-172
19,91,72,-55,-26,82,-61,-167,-146,105,-162,-171
19,92,73,-55,-27,83,-61,-168,-147,104,-162,-172
20,92,72,-56,-26,82,-61,-167,-146,105,-162,-172
20,92,72,-56,-26,82,-61,-167,-146,104,-163,-172
19,91,72,-55,-26,82,-61,-166,-146,104,-162,-171
17,90,73,-53,-28,82,-61,-166,-147,104,-162,-172
15,88,73,-51,-29,81,-60,-166,-148,103,-163,-173
13,87,74,-50,-30,81,-60,-166,-149,101,-165,-175
11,86,75,-48,-32,81,-58,-166,-149,100,-166,-176
9,84,75,-46,-33,80,-57,-166,-149,99,-167,-177
7,82,75,-44,-34,79,-55,-165,-148,99,-167,-176
7,81,74,-44,-33,78,-56,-166,-150,97,-169,-178
7,80,73,-43,-33,77,-57,-167,-152,96,-169,-179
7,79,72,-43,-32,76,-57,-167,-152,96,-169,-179
7,79,72,-43,-32,76,-57,-168,-153,95,-169,-179
8,78,70,-43,-31,74,-57,-169,-154,93,-170,-180
8,78,70,-43,-31,74,-57,-169,-155,93,-170,-181
8,78,70,-43,-31,74,-57,-170,-155,93,-170,-181
8,78,70,-43,-31,74,-57,-169,-154,94,-170,-180
8,78,70,-43,-31,74,-55,-169,-153,95,-169,-179
9,78,69,-43,-30,74,-55,-169,-153,94,-170,-180
9,78,69,-43,-30,74,-55,-168,-153,94,-170,-180
10,78,68,-44,-29,73,-55,-168,-153,94,-170,-180
9,78,69,-43,-30,74,-56,-169,-154,93,-171,-181
8,77,69,-42,-30,73,-55,-168,-154,93,-170,-180
8,78,70,-43,-31,74,-55,-168,-154,93,-170,-180
9,79,70,-44,-30,75,-56,-169,-154,93,-170,-180
9,80,71,-44,-31,76,-55,-169,-153,93,-169,-179
10,80,70,-45,-30,75,-56,-170,-154,92,-170,-181
9,79,70,-44,-30,75,-55,-169,-153,93,-170,-180
8,78,70,-43,-31,74,-55,-169,-153,93,-169,-180
8,77,69,-42,-30,73,-55,-168,-154,93,-170,-180
8,77,69,-42,-30,73,-55,-168,-153,93,-170,-180
9,78,69,-43,-30,74,-55,-168,-154,92,-171,-180
9,79,70,-44,-30,75,-55,-167,-153,93,-170,-179
9,80,71,-44,-31,76,-56,-167,-152,93,-169,-178
9,79,70,-44,-30,75,-57,-167,-153,93,-170,-179
8,78,70,-43,-31,74,-56,-167,-153,93,-170,-179
7,78,71,-42,-32,75,-54,-169,-154,92,-170,-180
6,77,71,-41,-32,74,-54,-168,-154,93,-170,-180
6,77,71,-41,-32,74,-55,-168,-153,93,-170,-180
7,78,71,-42,-32,75,-55,-168,-153,93,-170,-180
8,79,71,-43,-31,75,-55,-169,-153,92,-170,-179
8,79,71,-43,-31,75,-56,-169,-153,92,-170,-180
7,79,72,-43,-32,76,-56,-168,-153,93,-169,-179
6,79,73,-42,-33,76,-57,-169,-153,93,-170,-180
6,79,73,-42,-33,76,-56,-169,-153,93,-170,-179
7,80,73,-43,-33,77,-57,-169,-153,92,-170,-180
8,81,73,-44,-32,77,-56,-168,-152,94,-169,-179
9,82,73,-45,-32,78,-56,-168,-151,94,-169,-179
9,81,72,-45,-31,77,-56,-167,-151,94,-170,-179
9,78,69,-43,-30,74,-54,-165,-150,93,-171,-180
9,74,65,-41,-28,70,-51,-157,-149,91,-173,-183
9,68,59,-38,-25,64,-46,-145,-147,88,-179,-188
9,61,52,-35,-21,57,-40,-130,-145,85,-186,-195
10,53,43,-31,-16,48,-32,-115,-141,81,-194,-202
11,45,34,-28,-11,40,-23,-98,-134,78,-201,-209
13,38,25,-25,-6,32,-16,-82,-127,74,-210,-217
14,35,21,-24,-3,28,-10,-70,-116,74,-215,-221
15,39,24,-27,-4,32,-9,-66,-101,78,-213,-221
18,50,32,-34,-7,41,-11,-64,-78,89,-203,-214
24,68,44,-46,-10,56,-18,-64,-51,109,-188,-201
35,91,56,-63,-10,74,-33,-67,-25,137,-167,-185
47,119,72,-83,-12,96,-51,-71,2,173,-138,-162
60,149,89,-104,-14,119,-68,-75,29,213,-104,-134
73,182,109,-127,-18,146,-82,-84,55,258,-68,-104
84,218,134,-151,-25,176,-94,-104,80,310,-27,-72
90,255,165,-172,-37,210,-110,-155,81,357,13,-40
89,292,203,-190,-57,248,-127,-242,43,397,56,-4
81,338,257,-209,-88,298,-143,-370,-24,436,107,40
68,394,326,-231,-129,360,-162,-524,-94,482,167,90
51,446,395,-248,-172,421,-180,-664,-142,537,223,138
35,480,445,-257,-205,463,-199,-765,-170,591,264,172
27,502,475,-264,-224,489,-219,-830,-184,641,291,195
22,513,491,-267,-234,502,-228,-864,-190,689,311,211
18,510,492,-264,-237,501,-224,-877,-195,731,316,214
15,492,477,-253,-231,485,-217,-877,-212,751,302,204
12,463,451,-237,-219,457,-213,-864,-246,726,271,182
4,428,424,-216,-210,426,-205,-847,-299,644,225,151
-7,384,391,-188,-199,388,-195,-823,-355,519,169,115
-19,325,344,-153,-181,335,-187,-779,-404,359,100,67
-28,256,284,-114,-156,270,-185,-717,-443,183,19,10
-36,197,233,-80,-134,215,-194,-663,-474,32,-54,-42
-42,160,202,-59,-122,181,-219,-632,-480,-47,-105,-81
-45,137,182,-46,-113,160,-245,-605,-454,-57,-134,-108
-48,119,167,-35,-107,143,-259,-577,-421,-41,-153,-129
-52,103,155,-25,-103,129,-257,-549,-396,-27,-167,-146
-53,95,148,-21,-100,122,-248,-516,-371,-13,-174,-158
-49,92,141,-21,-95,117,-238,-477,-341,6,-177,-164
-43,92,135,-24,-89,114,-225,-435,-313,21,-179,-170
-36,92,128,-28,-82,110,-202,-390,-284,36,-179,-174
-28,95,123,-33,-75,109,-178,-349,-257,50,-177,-176
-20,98,118,-39,-69,108,-156,-310,-230,64,-174,-176
-12,100,112,-44,-62,106,-134,-275,-205,77,-169,-173
-4,101,105,-48,-54,103,-117,-245,-185,87,-165,-170
0,101,101,-50,-50,101,-102,-221,-171,95,-162,-168
3,101,98,-52,-47,100,-93,-206,-162,99,-161,-168
4,100,96,-52,-46,98,-87,-195,-157,100,-161,-168
6,98,92,-52,-43,95,-82,-188,-153,100,-162,-170
7,95,88,-51,-40,92,-77,-182,-150,99,-163,-172
8,93,85,-50,-38,89,-72,-176,-147,99,-165,-172
8,90,82,-49,-37,86,-68,-172,-144,99,-166,-173
9,87,78,-48,-34,83,-65,-169,-141,98,-168,-175
9,86,77,-47,-34,82,-61,-164,-137,99,-168,-176
10,85,75,-47,-32,80,-58,-160,-134,99,-169,-176
9,85,76,-47,-33,81,-57,-157,-133,99,-169,-177
8,85,77,-46,-34,81,-57,-154,-133,100,-169,-177
9,86,77,-47,-34,82,-56,-151,-132,101,-168,-177
11,87,76,-49,-32,82,-56,-149,-132,101,-168,-177
12,86,74,-49,-31,80,-56,-147,-131,101,-168,-177
12,85,73,-48,-30,79,-56,-146,-130,101,-168,-177
12,83,71,-47,-29,77,-55,-144,-127,101,-169,-177
12,82,70,-47,-29,76,-54,-144,-125,101,-171,-179
12,80,68,-46,-28,74,-52,-142,-123,102,-171,-181
12,79,67,-45,-27,73,-51,-141,-122,102,-171,-180
13,80,67,-46,-27,74,-52,-140,-122,102,-171,-180
13,81,68,-47,-27,75,-51,-138,-121,103,-170,-179
13,82,69,-47,-28,76,-50,-137,-122,104,-169,-179
12,82,70,-47,-29,76,-51,-137,-123,104,-169,-178
11,82,71,-46,-30,77,-51,-136,-123,104,-170,-178
12,81,69,-46,-28,75,-51,-136,-121,103,-171,-179
13,80,67,-46,-27,74,-50,-136,-120,104,-171,-179
14,79,65,-46,-25,72,-48,-135,-118,105,-171,-179
15,79,64,-47,-24,72,-47,-134,-116,105,-171,-179
14,79,65,-46,-25,72,-48,-134,-115,105,-171,-180
13,80,67,-46,-27,74,-48,-133,-116,106,-170,-181
15,82,67,-48,-26,75,-48,-132,-116,107,-170,-181
16,83,67,-49,-25,75,-48,-131,-117,107,-169,-180
16,83,67,-49,-25,75,-49,-131,-118,108,-169,-179
15,82,67,-48,-26,75,-50,-131,-118,109,-168,-178
15,82,67,-48,-26,75,-51,-131,-117,108,-169,-178
16,81,65,-48,-24,73,-51,-131,-116,108,-168,-178
17,81,64,-49,-23,73,-49,-130,-115,109,-168,-178
17,81,64,-49,-23,73,-47,-130,-113,110,-168,-177
18,81,63,-49,-22,72,-47,-130,-113,110,-168,-177
17,81,64,-49,-23,73,-45,-128,-113,111,-166,-175
17,81,64,-49,-23,73,-46,-129,-114,111,-166,-176
16,81,65,-48,-24,73,-47,-129,-115,111,-166,-177
15,81,66,-48,-25,74,-48,-129,-116,112,-165,-176
16,82,66,-49,-25,74,-49,-128,-115,113,-164,-175
17,81,64,-49,-23,73,-49,-127,-114,114,-165,-175
17,80,63,-48,-23,72,-50,-127,-113,114,-165,-175
16,79,63,-47,-23,71,-49,-127,-112,115,-165,-175
17,79,62,-48,-22,71,-51,-128,-112,114,-165,-176
17,80,63,-48,-23,72,-50,-128,-111,114,-165,-176
17,81,64,-49,-23,73,-49,-128,-112,115,-165,-175
17,81,64,-49,-23,73,-48,-127,-112,116,-164,-174
17,82,65,-49,-24,74,-49,-127,-113,116,-165,-175
17,83,66,-50,-24,75,-50,-127,-113,116,-164,-174
18,84,66,-51,-24,75,-51,-127,-113,116,-164,-174
19,83,64,-51,-22,74,-50,-127,-112,117,-164,-174
20,82,62,-51,-21,72,-50,-127,-112,116,-165,-175
19,81,62,-50,-21,72,-49,-127,-111,117,-165,-175
19,80,61,-49,-21,71,-50,-127,-110,117,-166,-176
19,81,62,-50,-21,72,-50,-127,-110,117,-166,-176
19,82,63,-50,-22,73,-50,-126,-110,118,-165,-176
19,82,63,-50,-22,73,-50,-125,-110,119,-164,-175
19,82,63,-50,-22,73,-51,-124,-111,119,-163,-174
19,84,65,-51,-23,75,-52,-125,-112,119,-163,-173
20,85,65,-52,-22,75,-53,-125,-112,119,-162,-173
21,85,64,-53,-21,75,-53,-125,-111,120,-163,-172
22,85,63,-53,-20,74,-53,-126,-110,120,-163,-172
22,84,62,-53,-20,73,-53,-126,-110,120,-163,-172
22,84,62,-53,-20,73,-53,-126,-109,120,-163,-173
22,83,61,-52,-19,72,-53,-126,-108,121,-162,-173
21,84,63,-52,-21,74,-53,-126,-109,122,-162,-173
20,85,65,-52,-22,75,-53,-125,-109,123,-161,-172
22,86,64,-54,-21,75,-54,-125,-110,123,-160,-172
23,88,65,-55,-21,77,-55,-124,-111,124,-160,-172
24,89,65,-56,-20,77,-54,-123,-110,125,-160,-170
24,88,64,-56,-20,76,-54,-124,-109,124,-161,-171
24,86,62,-55,-19,74,-54,-123,-108,124,-161,-170
23,85,62,-54,-19,74,-54,-124,-107,124,-161,-171
23,84,61,-53,-19,73,-53,-124,-105,125,-160,-170
22,84,62,-53,-20,73,-54,-124,-105,125,-160,-170
22,84,62,-53,-20,73,-54,-123,-106,127,-159,-169
23,84,61,-53,-19,73,-54,-122,-106,128,-157,-168
23,85,62,-54,-19,74,-56,-123,-107,129,-157,-168
23,86,63,-54,-20,75,-56,-122,-107,130,-156,-167
24,87,63,-55,-19,75,-58,-122,-108,129,-157,-167
25,86,61,-55,-18,74,-59,-122,-107,130,-156,-167
26,85,59,-55,-16,72,-60,-122,-106,130,-156,-167
27,85,58,-56,-15,72,-60,-122,-105,131,-156,-167
27,85,58,-56,-15,72,-58,-121,-104,131,-157,-167
27,86,59,-56,-16,73,-57,-121,-103,132,-156,-167
27,87,60,-57,-16,74,-57,-121,-104,132,-155,-167
27,88,61,-57,-17,75,-58,-121,-104,134,-154,-166
28,89,61,-58,-16,75,-60,-121,-105,135,-153,-166
28,90,62,-59,-17,76,-61,-120,-105,136,-151,-164
28,90,62,-59,-17,76,-62,-120,-105,137,-152,-163
29,89,60,-59,-15,75,-63,-120,-105,136,-152,-163
29,89,60,-59,-15,75,-63,-120,-104,137,-152,-163
30,88,58,-59,-14,73,-62,-119,-102,137,-152,-162
30,88,58,-59,-14,73,-62,-119,-102,138,-153,-163
29,88,59,-58,-15,74,-63,-118,-102,138,-153,-163
28,89,61,-58,-16,75,-64,-118,-102,140,-152,-163
29,90,61,-59,-16,76,-64,-117,-102,142,-150,-161
30,91,61,-60,-15,76,-66,-117,-103,143,-150,-161
30,92,62,-61,-16,77,-67,-116,-103,144,-148,-159
31,92,61,-61,-15,77,-69,-116,-103,145,-148,-160
33,92,59,-62,-13,76,-69,-115,-102,146,-147,-159
34,92,58,-63,-12,75,-70,-115,-102,146,-147,-159
34,91,57,-62,-11,74,-70,-114,-100,147,-146,-158
33,90,57,-61,-12,74,-70,-114,-100,148,-146,-160
33,89,56,-61,-11,73,-69,-113,-99,150,-145,-159
34,90,56,-62,-11,73,-69,-113,-99,151,-145,-159
35,92,57,-63,-11,75,-70,-112,-100,153,-144,-157
36,94,58,-65,-11,76,-72,-110,-100,155,-142,-155
37,96,59,-66,-11,78,-74,-110,-100,157,-141,-154
38,97,59,-67,-10,78,-76,-109,-100,158,-140,-153
39,97,58,-68,-9,78,-76,-107,-99,160,-138,-152
40,97,57,-68,-8,77,-77,-107,-98,161,-138,-151
40,96,56,-68,-8,76,-77,-106,-98,162,-138,-151
41,95,54,-68,-6,75,-77,-105,-97,164,-137,-151
43,96,53,-69,-5,75,-78,-105,-97,166,-136,-150
44,97,53,-70,-4,75,-79,-105,-98,168,-134,-149
44,98,54,-71,-5,76,-80,-104,-98,171,-132,-147
45,99,54,-72,-4,77,-83,-104,-99,174,-130,-145
47,100,53,-73,-3,77,-85,-103,-99,176,-129,-143
49,101,52,-75,-1,77,-87,-103,-100,178,-128,-143
50,102,52,-76,-1,77,-87,-101,-99,180,-127,-141
52,102,50,-77,1,76,-88,-101,-98,182,-126,-140
52,102,50,-77,1,76,-89,-100,-97,185,-124,-138
53,102,49,-77,2,76,-90,-99,-97,188,-123,-138
53,101,48,-77,3,75,-91,-99,-96,191,-121,-137
54,102,48,-78,3,75,-93,-98,-96,195,-119,-135
56,105,49,-80,4,77,-94,-97,-96,198,-116,-132
58,108,50,-83,4,79,-97,-97,-98,200,-113,-130
60,109,49,-84,6,79,-99,-97,-99,204,-110,-128
61,111,50,-86,6,81,-101,-97,-100,207,-108,-127
63,112,49,-87,7,81,-104,-97,-101,209,-107,-126
64,111,47,-87,9,79,-105,-98,-100,212,-105,-124
65,111,46,-88,10,79,-105,-98,-100,215,-104,-122
66,112,46,-89,10,79,-107,-98,-100,218,-102,-122
67,112,45,-89,11,79,-107,-98,-100,222,-100,-120
67,113,46,-90,11,80,-109,-99,-101,225,-98,-119
69,115,46,-92,12,81,-112,-99,-102,228,-96,-117
70,116,46,-93,12,81,-116,-98,-102,232,-92,-115
71,118,47,-94,12,83,-119,-99,-103,235,-89,-114
72,119,47,-95,13,83,-120,-99,-102,239,-86,-112
75,121,46,-98,15,84,-121,-100,-103,241,-86,-110
78,122,44,-100,17,83,-121,-100,-102,243,-84,-108
79,123,44,-101,18,84,-122,-101,-102,246,-83,-107
80,124,44,-102,18,84,-123,-102,-102,247,-82,-107
80,125,45,-102,18,85,-123,-102,-101,250,-80,-105
81,127,46,-104,18,87,-123,-103,-102,252,-79,-105
80,128,48,-104,16,88,-124,-103,-101,255,-77,-103
80,129,49,-104,16,89,-125,-103,-101,256,-75,-102
80,130,50,-105,15,90,-126,-104,-102,256,-75,-102
80,131,51,-105,15,91,-125,-104,-100,257,-75,-101
79,132,53,-105,13,93,-124,-105,-99,256,-76,-101
78,132,54,-105,12,93,-123,-106,-98,255,-77,-103
78,131,53,-104,13,92,-121,-106,-95,253,-78,-104
77,130,53,-103,12,92,-120,-109,-95,249,-81,-107
74,130,56,-102,9,93,-119,-111,-96,246,-83,-110
71,129,58,-100,7,94,-116,-111,-95,244,-84,-110
68,129,61,-98,4,95,-114,-113,-96,240,-86,-111
65,129,64,-97,1,97,-110,-115,-97,236,-88,-113
63,128,65,-95,-1,97,-107,-116,-98,231,-90,-115
61,127,66,-94,-2,97,-103,-118,-99,227,-92,-116
59,125,66,-92,-3,96,-100,-120,-100,221,-96,-118
56,123,67,-89,-5,95,-97,-122,-100,214,-99,-122
54,120,66,-87,-6,93,-95,-125,-100,208,-104,-126
51,118,67,-84,-8,93,-92,-127,-100,203,-106,-128
49,116,67,-82,-9,92,-89,-129,-101,198,-110,-131
46,114,68,-80,-11,91,-86,-130,-101,193,-112,-133
43,114,71,-78,-14,93,-84,-132,-103,188,-115,-136
41,113,72,-77,-15,93,-82,-134,-106,182,-118,-138
38,112,74,-75,-18,93,-80,-136,-108,176,-121,-140
35,111,76,-73,-20,94,-78,-137,-109,172,-122,-140
35,110,75,-72,-20,93,-76,-140,-111,168,-125,-143
34,108,74,-71,-20,91,-73,-141,-112,163,-128,-146
32,106,74,-69,-21,90,-71,-143,-113,158,-132,-148
30,104,74,-67,-22,89,-68,-144,-114,154,-133,-150
28,103,75,-65,-23,89,-66,-145,-115,150,-136,-151
26,101,75,-63,-24,88,-65,-147,-118,146,-137,-153
24,100,76,-62,-26,88,-64,-148,-120,143,-138,-154
23,100,77,-61,-27,89,-62,-150,-122,139,-140,-155
22,100,78,-61,-28,89,-60,-150,-122,137,-140,-155
22,99,77,-60,-27,88,-61,-151,-123,134,-141,-156
22,99,77,-60,-27,88,-61,-152,-125,132,-144,-157
"
		21","
		98","
		77","
		-59","
		-28","
		88","
		-59","
		-153","
		-125","
		130","
		-145","
		-158"
20,96,76,-58,-28,86,-58,-154,-125,127,-147,-160
19,94,75,-56,-28,85,-57,-154,-126,125,-148,-161
17,94,77,-55,-30,86,-56,-156,-127,122,-150,-162
17,94,77,-55,-30,86,-56,-157,-129,121,-150,-162
16,93,77,-54,-30,85,-56,-156,-131,121,-150,-162
15,92,77,-53,-31,85,-56,-156,-132,120,-150,-162
15,92,77,-53,-31,85,-57,-156,-133,118,-151,-162
15,92,77,-53,-31,85,-58,-157,-134,118,-151,-162
15,91,76,-53,-30,84,-57,-157,-135,117,-152,-162
15,90,75,-52,-30,83,-56,-157,-135,116,-152,-163
15,90,75,-52,-30,83,-54,-157,-135,115,-153,-164
15,89,74,-52,-29,82,-51,-156,-134,115,-153,-164
15,88,73,-51,-29,81,-50,-157,-134,114,-153,-164
15,89,74,-52,-29,82,-49,-157,-134,114,-153,-164
15,89,74,-52,-29,82,-49,-157,-135,114,-154,-164
14,88,74,-51,-30,81,-49,-157,-136,113,-155,-165
14,89,75,-51,-30,82,-50,-157,-138,112,-155,-165
13,89,76,-51,-31,83,-51,-157,-139,112,-154,-165
13,89,76,-51,-31,83,-51,-157,-138,111,-155,-165
13,88,75,-50,-31,82,-49,-156,-137,112,-154,-165
14,89,75,-51,-30,82,-50,-157,-137,111,-156,-166
14,89,75,-51,-30,82,-50,-157,-136,110,-156,-166
13,89,76,-51,-31,83,-50,-157,-136,109,-157,-167
14,89,75,-51,-30,82,-50,-156,-135,110,-156,-166
15,90,75,-52,-30,83,-50,-156,-135,110,-156,-165
15,90,75,-52,-30,83,-50,-156,-136,111,-156,-164
14,91,77,-52,-31,84,-51,-156,-137,111,-156,-164
13,91,78,-52,-32,85,-50,-155,-137,111,-155,-164
12,89,77,-50,-32,83,-50,-154,-136,110,-155,-163
12,88,76,-50,-32,82,-50,-154,-136,109,-156,-164
13,88,75,-50,-31,82,-50,-154,-135,109,-157,-165
13,88,75,-50,-31,82,-49,-153,-134,108,-157,-166
12,88,76,-50,-32,82,-49,-153,-134,108,-157,-166
12,87,75,-49,-31,81,-49,-153,-134,109,-157,-167
11,87,76,-49,-32,82,-48,-152,-133,110,-155,-166
11,87,76,-49,-32,82,-48,-152,-134,110,-155,-165
11,88,77,-49,-33,83,-48,-153,-135,109,-156,-166
12,88,76,-50,-32,82,-48,-152,-134,110,-156,-165
12,88,76,-50,-32,82,-48,-152,-133,110,-156,-164
13,88,75,-50,-31,82,-48,-151,-132,110,-156,-164
13,87,74,-50,-30,81,-48,-151,-132,110,-157,-165
14,86,72,-50,-29,79,-48,-151,-133,109,-157,-166
13,86,73,-49,-30,80,-48,-151,-132,109,-158,-166
13,86,73,-49,-30,80,-49,-151,-132,109,-158,-165
12,87,75,-49,-31,81,-49,-150,-132,110,-158,-165
12,87,75,-49,-31,81,-49,-150,-133,110,-157,-166
12,88,76,-50,-32,82,-49,-150,-133,110,-157,-165
12,87,75,-49,-31,81,-50,-150,-133,110,-156,-165
12,87,75,-49,-31,81,-50,-150,-133,109,-157,-166
12,86,74,-49,-31,80,-49,-149,-132,110,-156,-165
12,86,74,-49,-31,80,-48,-149,-131,109,-157,-166
12,85,73,-48,-30,79,-47,-149,-131,109,-157,-166
12,85,73,-48,-30,79,-46,-149,-131,108,-158,-167
13,86,73,-49,-30,80,-47,-149,-132,108,-158,-168
13,86,73,-49,-30,80,-48,-149,-132,108,-158,-167
12,87,75,-49,-31,81,-48,-149,-133,108,-158,-166
12,88,76,-50,-32,82,-48,-149,-133,108,-158,-166
12,88,76,-50,-32,82,-49,-149,-134,108,-158,-166
13,88,75,-50,-31,82,-50,-149,-133,108,-158,-166
13,87,74,-50,-30,81,-50,-149,-133,108,-158,-165
14,88,74,-51,-30,81,-50,-150,-133,107,-159,-166
15,89,74,-52,-29,82,-48,-149,-131,108,-158,-165
16,90,74,-53,-29,82,-47,-149,-130,109,-159,-164
17,90,73,-53,-28,82,-46,-149,-131,109,-158,-164
14,87,73,-50,-29,80,-47,-150,-132,108,-158,-164
11,84,73,-47,-31,79,-49,-152,-134,107,-158,-165
11,85,74,-48,-31,80,-50,-153,-135,107,-158,-166
14,87,73,-50,-29,80,-48,-152,-135,107,-157,-165
15,88,73,-51,-29,81,-48,-151,-135,106,-157,-165
14,88,74,-51,-30,81,-49,-152,-135,106,-158,-167
13,86,73,-49,-30,80,-49,-152,-135,106,-159,-167
13,85,72,-49,-29,79,-48,-152,-135,105,-159,-167
12,86,74,-49,-31,80,-48,-152,-135,105,-159,-167
13,88,75,-50,-31,82,-47,-153,-135,105,-160,-167
13,89,76,-51,-31,83,-48,-154,-137,104,-160,-168
13,88,75,-50,-31,82,-48,-153,-137,105,-159,-167
12,88,76,-50,-32,82,-48,-154,-138,104,-159,-167
12,88,76,-50,-32,82,-48,-154,-138,104,-159,-168
12,88,76,-50,-32,82,-48,-154,-138,104,-160,-167
13,87,74,-50,-30,81,-47,-154,-138,103,-160,-166
13,86,73,-49,-30,80,-47,-154,-139,102,-161,-167
12,85,73,-48,-30,79,-46,-154,-139,102,-160,-167
11,85,74,-48,-31,80,-47,-155,-139,102,-161,-168
11,85,74,-48,-31,80,-47,-155,-140,102,-161,-168
12,86,74,-49,-31,80,-47,-155,-141,102,-161,-168
12,87,75,-49,-31,81,-47,-156,-143,101,-162,-169
12,88,76,-50,-32,82,-47,-157,-143,101,-162,-169
13,88,75,-50,-31,82,-46,-157,-144,101,-161,-169
12,88,76,-50,-32,82,-46,-157,-144,100,-161,-169
12,86,74,-49,-31,80,-46,-156,-143,100,-161,-168
12,85,73,-48,-30,79,-47,-157,-144,99,-162,-169
12,84,72,-48,-30,78,-48,-158,-145,98,-163,-169
12,84,72,-48,-30,78,-50,-158,-146,98,-163,-169
12,84,72,-48,-30,78,-50,-158,-146,98,-162,-168
12,85,73,-48,-30,79,-51,-158,-146,98,-162,-167
12,85,73,-48,-30,79,-50,-158,-146,98,-161,-167
12,86,74,-49,-31,80,-49,-158,-146,99,-161,-167
12,86,74,-49,-31,80,-47,-158,-146,98,-161,-167
12,85,73,-48,-30,79,-45,-158,-146,98,-161,-167
13,84,71,-48,-29,78,-46,-159,-147,97,-162,-168
13,84,71,-48,-29,78,-47,-160,-147,97,-162,-168
12,83,71,-47,-29,77,-46,-159,-147,97,-162,-167
12,83,71,-47,-29,77,-46,-159,-147,96,-162,-168
12,83,71,-47,-29,77,-46,-159,-148,96,-162,-168
12,84,72,-48,-30,78,-47,-160,-149,95,-162,-169
12,83,71,-47,-29,77,-46,-159,-148,95,-160,-168
11,83,72,-47,-30,78,-47,-160,-149,95,-161,-167
11,82,71,-46,-30,77,-48,-161,-150,94,-162,-167
10,81,71,-45,-30,76,-49,-160,-150,95,-162,-167
9,81,72,-45,-31,77,-49,-160,-150,94,-163,-168
10,81,71,-45,-30,76,-49,-161,-150,93,-164,-168
11,80,69,-45,-29,75,-47,-161,-150,93,-165,-168
11,80,69,-45,-29,75,-45,-161,-150,93,-165,-168
11,80,69,-45,-29,75,-45,-162,-152,92,-165,-169
10,81,71,-45,-30,76,-46,-162,-154,92,-166,-169
10,81,71,-45,-30,76,-45,-163,-154,92,-165,-169
10,82,72,-46,-31,77,-45,-162,-154,92,-164,-168
11,82,71,-46,-30,77,-46,-163,-155,92,-164,-168
12,82,70,-47,-29,76,-46,-163,-154,92,-164,-168
13,81,68,-47,-27,75,-45,-163,-154,93,-164,-168
14,80,66,-47,-26,73,-45,-163,-153,93,-164,-168
14,80,66,-47,-26,73,-44,-162,-152,93,-163,-167
13,80,67,-46,-27,74,-45,-163,-152,93,-164,-168
12,79,67,-45,-27,73,-44,-163,-152,94,-163,-167
11,79,68,-45,-28,74,-45,-163,-154,93,-164,-168
11,79,68,-45,-28,74,-45,-163,-154,93,-164,-168
11,79,68,-45,-28,74,-45,-163,-154,93,-163,-167
11,80,69,-45,-29,75,-45,-163,-154,93,-163,-167
11,80,69,-45,-29,75,-45,-163,-154,94,-163,-167
11,79,68,-45,-28,74,-45,-163,-153,93,-164,-168
12,79,67,-45,-27,73,-45,-163,-153,93,-165,-168
12,79,67,-45,-27,73,-45,-164,-153,92,-165,-168
12,79,67,-45,-27,73,-45,-163,-152,93,-165,-168
13,79,66,-46,-26,73,-45,-163,-152,93,-164,-168
13,80,67,-46,-27,74,-46,-164,-153,93,-165,-169
12,80,68,-46,-28,74,-45,-163,-152,94,-164,-168
12,81,69,-46,-28,75,-46,-164,-154,93,-165,-169
12,81,69,-46,-28,75,-46,-164,-155,93,-165,-169
13,82,69,-47,-28,76,-46,-164,-155,93,-165,-169
13,81,68,-47,-27,75,-46,-165,-155,92,-165,-169
13,80,67,-46,-27,74,-47,-165,-155,92,-165,-170
11,79,68,-45,-28,74,-47,-164,-154,92,-165,-170
10,78,68,-44,-29,73,-46,-163,-153,93,-165,-169
11,79,68,-45,-28,74,-46,-164,-154,92,-165,-170
12,80,68,-46,-28,74,-45,-164,-154,93,-164,-169
12,80,68,-46,-28,74,-44,-163,-154,93,-163,-169
12,81,69,-46,-28,75,-46,-164,-155,92,-164,-170
12,81,69,-46,-28,75,-46,-164,-155,92,-163,-170
12,80,68,-46,-28,74,-46,-164,-155,92,-162,-169
12,79,67,-45,-27,73,-46,-165,-155,91,-163,-170
13,79,66,-46,-26,73,-46,-165,-155,91,-164,-170
13,79,66,-46,-26,73,-45,-165,-154,92,-164,-169
13,79,66,-46,-26,73,-44,-165,-153,92,-164,-169
12,79,67,-45,-27,73,-45,-165,-153,92,-164,-169
11,79,68,-45,-28,74,-46,-165,-154,91,-165,-170
10,79,69,-44,-29,74,-46,-163,-154,92,-164,-169
11,79,68,-45,-28,74,-46,-164,-156,91,-164,-169
11,80,69,-45,-29,75,-45,-165,-156,91,-164,-169
11,80,69,-45,-29,75,-45,-165,-156,91,-164,-169
12,80,68,-46,-28,74,-44,-165,-156,91,-164,-169
12,80,68,-46,-28,74,-44,-165,-155,91,-165,-169
12,80,68,-46,-28,74,-45,-166,-155,90,-165,-169
12,79,67,-45,-27,73,-47,-167,-156,90,-166,-169
11,79,68,-45,-28,74,-47,-167,-156,89,-166,-169
11,79,68,-45,-28,74,-47,-166,-156,89,-166,-169
11,80,69,-45,-29,75,-47,-166,-156,89,-165,-169
11,81,70,-46,-29,76,-48,-166,-156,89,-164,-169
12,82,70,-47,-29,76,-48,-167,-156,89,-164,-169
13,82,69,-47,-28,76,-47,-166,-155,89,-163,-168
13,81,68,-47,-27,75,-48,-166,-156,89,-164,-169
12,79,67,-45,-27,73,-47,-165,-156,89,-164,-168
11,79,68,-45,-28,74,-47,-166,-156,89,-165,-169
12,78,66,-45,-27,72,-47,-166,-156,89,-165,-169
11,77,66,-44,-27,72,-46,-166,-156,89,-165,-168
10,76,66,-43,-28,71,-46,-166,-157,89,-165,-168
10,77,67,-43,-28,72,-47,-167,-158,88,-165,-169
10,78,68,-44,-29,73,-47,-166,-157,89,-165,-168
11,79,68,-45,-28,74,-48,-166,-158,88,-165,-168
11,79,68,-45,-28,74,-48,-166,-158,88,-165,-168
11,78,67,-44,-28,73,-47,-166,-157,89,-165,-168
10,77,67,-43,-28,72,-47,-167,-157,88,-166,-169
9,76,67,-42,-29,72,-46,-166,-156,88,-166,-169
10,76,66,-43,-28,71,-46,-166,-156,88,-166,-169
11,77,66,-44,-27,72,-46,-166,-157,88,-167,-169
12,77,65,-44,-26,71,-46,-166,-157,88,-166,-168
11,77,66,-44,-27,72,-47,-166,-158,88,-166,-169
10,78,68,-44,-29,73,-48,-167,-159,87,-166,-169
10,78,68,-44,-29,73,-48,-167,-159,87,-167,-169
10,78,68,-44,-29,73,-48,-167,-160,87,-167,-169
10,77,67,-43,-28,72,-48,-167,-160,87,-167,-169
10,76,66,-43,-28,71,-47,-167,-159,87,-167,-169
10,76,66,-43,-28,71,-48,-168,-159,87,-167,-169
10,76,66,-43,-28,71,-48,-168,-159,87,-167,-170
9,75,66,-42,-28,71,-49,-168,-160,87,-167,-171
9,75,66,-42,-28,71,-50,-168,-160,86,-167,-171
9,76,67,-42,-29,72,-50,-168,-160,87,-167,-170
9,77,68,-43,-29,73,-49,-168,-159,88,-166,-169
10,78,68,-44,-29,73,-50,-168,-160,87,-166,-170
10,77,67,-43,-28,72,-50,-168,-160,87,-166,-170
9,76,67,-42,-29,72,-48,-167,-159,88,-166,-169
9,76,67,-42,-29,72,-47,-167,-160,87,-166,-170
9,75,66,-42,-28,71,-47,-168,-160,86,-167,-171
10,75,65,-42,-27,70,-46,-168,-160,86,-167,-171
10,76,66,-43,-28,71,-46,-167,-160,86,-167,-171
10,78,68,-44,-29,73,-46,-168,-161,86,-167,-171
10,79,69,-44,-29,74,-46,-167,-161,86,-166,-169
9,80,71,-44,-31,76,-46,-167,-161,86,-166,-169
9,79,70,-44,-30,75,-48,-168,-162,85,-167,-169
8,78,70,-43,-31,74,-48,-167,-161,86,-166,-168
9,77,68,-43,-29,73,-48,-167,-161,86,-167,-169
9,77,68,-43,-29,73,-48,-167,-161,86,-167,-169
9,77,68,-43,-29,73,-47,-167,-160,86,-167,-169
8,77,69,-42,-30,73,-47,-166,-160,86,-167,-170
9,77,68,-43,-29,73,-48,-166,-160,85,-166,-170
8,77,69,-42,-30,73,-49,-167,-161,85,-167,-170
7,77,70,-42,-31,74,-50,-167,-161,85,-168,-171
8,79,71,-43,-31,75,-50,-167,-162,85,-168,-171
10,80,70,-45,-30,75,-50,-166,-162,85,-168,-170
10,79,69,-44,-29,74,-50,-166,-161,86,-168,-170
9,78,69,-43,-30,74,-51,-167,-162,85,-168,-171
8,76,68,-42,-30,72,-50,-167,-162,84,-168,-171
8,76,68,-42,-30,72,-50,-167,-161,84,-168,-170
9,76,67,-42,-29,72,-49,-167,-160,84,-168,-170
9,76,67,-42,-29,72,-48,-167,-160,84,-168,-170
9,76,67,-42,-29,72,-48,-168,-161,84,-168,-171
8,76,68,-42,-30,72,-48,-168,-161,84,-168,-171
8,76,68,-42,-30,72,-48,-167,-161,84,-167,-171
7,77,70,-42,-31,74,-48,-167,-161,84,-167,-170
7,76,69,-41,-31,73,-46,-167,-161,85,-167,-169
7,76,69,-41,-31,73,-47,-167,-161,85,-167,-170
7,75,68,-41,-30,72,-48,-167,-160,84,-168,-170
8,75,67,-41,-29,71,-47,-167,-159,85,-167,-169
9,76,67,-42,-29,72,-47,-167,-159,85,-168,-169
10,76,66,-43,-28,71,-47,-166,-158,85,-167,-169
9,76,67,-42,-29,72,-48,-167,-159,85,-167,-170
8,75,67,-41,-29,71,-47,-167,-159,86,-167,-169
8,75,67,-41,-29,71,-46,-167,-160,85,-167,-170
9,76,67,-42,-29,72,-46,-168,-161,84,-168,-171
8,75,67,-41,-29,71,-45,-167,-160,86,-167,-170
8,75,67,-41,-29,71,-46,-167,-159,86,-167,-170
8,74,66,-41,-29,70,-46,-166,-158,86,-167,-170
8,74,66,-41,-29,70,-46,-166,-158,86,-167,-170
8,74,66,-41,-29,70,-44,-166,-158,85,-167,-170
9,75,66,-42,-28,71,-43,-166,-158,84,-168,-170
9,75,66,-42,-28,71,-43,-166,-159,85,-168,-170
8,76,68,-42,-30,72,-44,-166,-160,85,-168,-170
9,76,67,-42,-29,72,-44,-166,-160,85,-167,-170
9,76,67,-42,-29,72,-44,-166,-160,85,-167,-169
10,77,67,-43,-28,72,-45,-166,-161,85,-167,-170
10,77,67,-43,-28,72,-45,-166,-160,85,-167,-169
10,76,66,-43,-28,71,-44,-165,-158,86,-167,-169
9,75,66,-42,-28,71,-45,-166,-158,85,-169,-170
9,75,66,-42,-28,71,-45,-167,-159,84,-169,-170
8,76,68,-42,-30,72,-45,-167,-158,84,-169,-170
9,77,68,-43,-29,73,-45,-166,-158,85,-168,-169
10,78,68,-44,-29,73,-46,-166,-159,85,-168,-169
9,78,69,-43,-30,74,-47,-167,-159,85,-168,-170
8,78,70,-43,-31,74,-46,-166,-158,85,-167,-169
10,79,69,-44,-29,74,-46,-166,-158,85,-167,-170
11,80,69,-45,-29,75,-45,-166,-158,85,-168,-170
11,78,67,-44,-28,73,-44,-166,-158,85,-168,-170
8,76,68,-42,-30,72,-43,-166,-157,84,-168,-170
8,77,69,-42,-30,73,-43,-167,-157,84,-168,-170
9,78,69,-43,-30,74,-44,-167,-158,84,-169,-170
10,79,69,-44,-29,74,-44,-167,-158,84,-168,-169
9,79,70,-44,-30,75,-44,-167,-158,84,-168,-169
8,79,71,-43,-31,75,-45,-167,-159,83,-168,-170
8,79,71,-43,-31,75,-44,-167,-159,84,-168,-169
9,79,70,-44,-30,75,-43,-166,-158,84,-167,-169
10,79,69,-44,-29,74,-42,-166,-158,84,-166,-169
9,78,69,-43,-30,74,-43,-167,-158,84,-167,-169
8,77,69,-42,-30,73,-43,-166,-157,84,-168,-169
7,77,70,-42,-31,74,-43,-167,-157,84,-168,-170
8,77,69,-42,-30,73,-43,-166,-157,84,-168,-170
10,78,68,-44,-29,73,-43,-167,-158,84,-169,-171
10,79,69,-44,-29,74,-41,-166,-157,85,-168,-170
9,80,71,-44,-31,76,-40,-166,-157,85,-167,-169
9,81,72,-45,-31,77,-41,-167,-158,84,-168,-170
9,82,73,-45,-32,78,-42,-167,-158,84,-168,-170
10,82,72,-46,-31,77,-42,-167,-158,84,-168,-170
10,82,72,-46,-31,77,-42,-167,-158,83,-168,-170
11,81,70,-46,-29,76,-41,-168,-158,83,-169,-170
10,81,71,-45,-30,76,-41,-167,-157,83,-168,-170
10,82,72,-46,-31,77,-43,-167,-157,83,-168,-170
10,82,72,-46,-31,77,-44,-167,-158,83,-168,-170
10,83,73,-46,-31,78,-45,-168,-159,82,-170,-171
10,83,73,-46,-31,78,-45,-168,-160,82,-169,-170
10,84,74,-47,-32,79,-44,-167,-160,82,-169,-170
10,84,74,-47,-32,79,-43,-167,-159,82,-169,-170
10,84,74,-47,-32,79,-43,-168,-159,82,-169,-169
10,84,74,-47,-32,79,-43,-168,-159,82,-169,-169
10,83,73,-46,-31,78,-43,-168,-159,81,-170,-169
9,82,73,-45,-32,78,-42,-167,-158,81,-170,-169
9,82,73,-45,-32,78,-42,-167,-158,81,-170,-169
10,83,73,-46,-31,78,-43,-168,-159,82,-170,-170
10,84,74,-47,-32,79,-43,-167,-159,83,-170,-169
10,84,74,-47,-32,79,-44,-167,-160,83,-170,-169
10,84,74,-47,-32,79,-44,-167,-161,82,-170,-170
9,83,74,-46,-32,79,-44,-167,-160,81,-170,-169
"
		9","
		82","
		73","
		-45","
		-32","
		78","
		-44","
		-167","
		-161","
		81","
		-171","
		-170"
8,81,73,-44,-32,77,-43,-167,-160,82,-170,-169
8,80,72,-44,-32,76,-44,-167,-160,82,-170,-170
9,80,71,-44,-31,76,-45,-167,-160,81,-170,-170
9,80,71,-44,-31,76,-45,-166,-160,81,-170,-170
9,81,72,-45,-31,77,-45,-168,-161,81,-171,-171
9,82,73,-45,-32,78,-45,-168,-161,82,-171,-171
9,82,73,-45,-32,78,-44,-167,-161,82,-170,-170
9,82,73,-45,-32,78,-43,-166,-160,82,-169,-169
9,82,73,-45,-32,78,-44,-167,-160,81,-170,-170
8,81,73,-44,-32,77,-44,-167,-159,81,-170,-170
8,79,71,-43,-31,75,-44,-167,-160,81,-171,-171
8,77,69,-42,-30,73,-43,-167,-160,81,-170,-170
8,78,70,-43,-31,74,-42,-168,-159,81,-170,-170
9,79,70,-44,-30,75,-43,-169,-160,80,-171,-171
9,80,71,-44,-31,76,-43,-168,-159,81,-170,-170
9,80,71,-44,-31,76,-43,-167,-159,82,-169,-169
9,81,72,-45,-31,77,-44,-167,-160,82,-170,-170
8,81,73,-44,-32,77,-43,-166,-160,82,-168,-169
8,81,73,-44,-32,77,-43,-167,-161,81,-169,-170
8,80,72,-44,-32,76,-44,-168,-161,81,-170,-171
8,79,71,-43,-31,75,-43,-168,-161,81,-171,-171
9,78,69,-43,-30,74,-43,-168,-160,80,-171,-171
8,78,70,-43,-31,74,-42,-168,-158,81,-170,-170
8,78,70,-43,-31,74,-42,-168,-159,82,-170,-170
8,79,71,-43,-31,75,-44,-168,-160,81,-170,-171
8,79,71,-43,-31,75,-44,-168,-159,81,-170,-170
7,79,72,-43,-32,76,-42,-167,-159,82,-169,-169
7,79,72,-43,-32,76,-42,-168,-159,81,-169,-169
8,79,71,-43,-31,75,-43,-168,-160,80,-170,-171
8,79,71,-43,-31,75,-44,-168,-160,80,-170,-170
8,79,71,-43,-31,75,-44,-168,-159,81,-170,-170
8,78,70,-43,-31,74,-42,-167,-158,82,-170,-169
8,78,70,-43,-31,74,-41,-167,-158,82,-170,-170
7,78,71,-42,-32,75,-39,-167,-159,82,-170,-170
7,78,71,-42,-32,75,-39,-167,-160,82,-169,-171
7,78,71,-42,-32,75,-39,-168,-160,82,-169,-170
8,79,71,-43,-31,75,-40,-168,-161,81,-169,-170
8,79,71,-43,-31,75,-41,-167,-161,81,-169,-170
8,79,71,-43,-31,75,-40,-167,-161,82,-169,-170
8,79,71,-43,-31,75,-40,-167,-161,82,-169,-170
8,78,70,-43,-31,74,-38,-166,-160,83,-168,-169
8,78,70,-43,-31,74,-38,-166,-160,82,-168,-169
7,78,71,-42,-32,75,-39,-167,-160,82,-168,-169
7,77,70,-42,-31,74,-41,-167,-161,81,-169,-170
7,77,70,-42,-31,74,-42,-168,-162,81,-169,-170
7,78,71,-42,-32,75,-42,-167,-161,81,-168,-169
8,79,71,-43,-31,75,-42,-168,-162,81,-168,-169
7,79,72,-43,-32,76,-40,-166,-161,83,-167,-168
7,79,72,-43,-32,76,-40,-166,-162,82,-167,-169
7,78,71,-42,-32,75,-38,-166,-162,81,-168,-169
8,78,70,-43,-31,74,-36,-166,-160,83,-167,-168
8,80,72,-44,-32,76,-35,-166,-159,83,-168,-168
8,81,73,-44,-32,77,-34,-165,-158,84,-167,-168
8,81,73,-44,-32,77,-34,-165,-158,84,-167,-167
7,81,74,-44,-33,78,-34,-165,-158,84,-166,-167
8,82,74,-45,-33,78,-35,-165,-158,84,-166,-167
9,84,75,-46,-33,80,-36,-164,-158,84,-165,-166
10,86,76,-48,-33,81,-35,-163,-157,85,-165,-166
11,87,76,-49,-32,82,-34,-161,-156,87,-164,-165
12,87,75,-49,-31,81,-34,-161,-155,87,-164,-165
13,87,74,-50,-30,81,-33,-159,-154,88,-163,-165
15,87,72,-51,-28,80,-34,-159,-154,88,-164,-165
15,87,72,-51,-28,80,-33,-158,-153,89,-163,-164
14,88,74,-51,-30,81,-31,-158,-153,89,-163,-164
13,89,76,-51,-31,83,-30,-158,-153,88,-163,-164
13,90,77,-51,-32,84,-28,-157,-153,88,-163,-164
13,91,78,-52,-32,85,-26,-156,-153,88,-163,-164
13,91,78,-52,-32,85,-25,-155,-152,89,-163,-164
12,91,79,-51,-33,85,-24,-154,-151,90,-163,-163
14,90,76,-52,-31,83,-24,-153,-149,92,-162,-162
15,90,75,-52,-30,83,-26,-153,-149,92,-162,-163
17,88,71,-52,-27,80,-27,-151,-148,92,-163,-163
18,87,69,-52,-25,78,-28,-150,-147,92,-163,-163
20,88,68,-54,-24,78,-31,-152,-147,94,-162,-162
20,92,72,-56,-26,82,-35,-156,-147,95,-160,-160
20,96,76,-58,-28,86,-40,-162,-148,95,-158,-158
21,100,79,-60,-29,90,-46,-166,-148,95,-156,-157
22,103,81,-62,-29,92,-47,-165,-146,97,-154,-156
22,105,83,-63,-30,94,-45,-163,-145,98,-155,-156
23,104,81,-63,-29,93,-43,-161,-145,98,-155,-156
23,102,79,-62,-28,91,-44,-162,-146,97,-156,-156
22,100,78,-61,-28,89,-46,-163,-148,95,-158,-158
20,98,78,-59,-29,88,-46,-165,-150,93,-159,-160
20,100,80,-60,-30,90,-47,-167,-153,91,-160,-161
20,102,82,-61,-31,92,-46,-168,-155,90,-160,-160
18,102,84,-60,-33,93,-45,-169,-157,88,-162,-162
16,100,84,-58,-34,92,-43,-167,-157,88,-161,-162
15,98,83,-56,-34,91,-42,-166,-157,88,-162,-163
15,97,82,-56,-33,90,-44,-167,-157,87,-163,-164
16,96,80,-56,-32,88,-45,-167,-157,86,-163,-165
17,95,78,-56,-30,87,-45,-168,-157,86,-163,-164
18,95,77,-56,-29,86,-45,-168,-157,87,-164,-164
17,95,78,-56,-30,87,-45,-168,-158,87,-164,-164
17,96,79,-56,-31,88,-46,-168,-158,87,-163,-164
17,97,80,-57,-31,89,-47,-170,-159,86,-163,-164
17,98,81,-57,-32,90,-47,-169,-159,86,-163,-164
17,99,82,-58,-32,91,-46,-168,-159,86,-163,-164
16,101,85,-58,-34,93,-46,-169,-160,85,-165,-165
15,100,85,-57,-35,93,-45,-169,-160,85,-165,-165
14,98,84,-56,-35,91,-43,-169,-161,83,-167,-167
11,96,85,-53,-37,91,-42,-168,-161,83,-168,-168
8,93,85,-50,-38,89,-41,-167,-161,82,-169,-169
7,91,84,-49,-38,88,-40,-167,-161,80,-170,-170
6,90,84,-48,-39,87,-40,-168,-162,79,-171,-172
7,90,83,-48,-38,87,-40,-168,-163,78,-171,-173
7,91,84,-49,-38,88,-41,-168,-165,77,-172,-173
7,90,83,-48,-38,87,-41,-169,-166,77,-173,-173
7,89,82,-48,-37,86,-42,-171,-168,76,-174,-173
7,87,80,-47,-36,84,-41,-170,-168,76,-174,-173
7,85,78,-46,-35,82,-40,-170,-168,76,-173,-173
7,84,77,-45,-35,81,-41,-171,-168,75,-173,-173
7,83,76,-45,-34,80,-43,-171,-168,75,-173,-174
8,83,75,-45,-33,79,-43,-171,-167,76,-173,-174
8,83,75,-45,-33,79,-42,-171,-167,76,-173,-173
8,84,76,-46,-34,80,-40,-170,-166,77,-173,-173
8,85,77,-46,-34,81,-39,-171,-167,76,-174,-173
9,86,77,-47,-34,82,-40,-171,-167,76,-173,-172
10,85,75,-47,-32,80,-40,-171,-167,76,-173,-172
9,84,75,-46,-33,80,-41,-171,-168,76,-173,-173
8,82,74,-45,-33,78,-41,-171,-167,76,-173,-172
6,79,73,-42,-33,76,-39,-170,-165,78,-172,-171
7,78,71,-42,-32,75,-39,-170,-165,77,-172,-171
7,77,70,-42,-31,74,-38,-169,-164,77,-171,-171
7,78,71,-42,-32,75,-38,-169,-164,78,-171,-170
7,79,72,-43,-32,76,-39,-169,-165,79,-171,-170
6,79,73,-42,-33,76,-39,-170,-165,78,-171,-171
6,79,73,-42,-33,76,-40,-170,-166,77,-172,-172
6,79,73,-42,-33,76,-41,-170,-166,77,-171,-172
6,79,73,-42,-33,76,-41,-170,-167,77,-171,-172
5,78,73,-41,-34,76,-40,-169,-166,77,-170,-172
4,77,73,-40,-34,75,-41,-169,-166,77,-171,-172
5,77,72,-41,-33,75,-41,-169,-166,77,-171,-172
5,77,72,-41,-33,75,-41,-169,-165,77,-171,-172
5,77,72,-41,-33,75,-40,-169,-165,77,-171,-172
5,77,72,-41,-33,75,-40,-169,-165,77,-171,-172
6,77,71,-41,-32,74,-40,-168,-165,78,-171,-172
6,78,72,-42,-33,75,-41,-168,-165,78,-171,-172
5,79,74,-42,-34,77,-42,-168,-165,78,-171,-172
4,78,74,-41,-35,76,-41,-167,-164,78,-171,-171
5,78,73,-41,-34,76,-40,-167,-164,79,-170,-170
6,78,72,-42,-33,75,-40,-167,-163,79,-170,-170
6,77,71,-41,-32,74,-38,-166,-162,81,-169,-169
6,77,71,-41,-32,74,-39,-166,-162,81,-169,-169
6,77,71,-41,-32,74,-39,-166,-162,82,-169,-169
6,77,71,-41,-32,74,-39,-165,-162,82,-170,-170
6,77,71,-41,-32,74,-39,-164,-163,80,-172,-172
5,75,70,-40,-32,73,-37,-158,-162,78,-173,-173
6,71,65,-38,-29,68,-32,-147,-161,76,-178,-177
7,63,56,-35,-24,60,-25,-133,-157,73,-185,-184
8,54,46,-31,-19,50,-18,-118,-153,70,-192,-191
9,44,35,-26,-13,40,-10,-101,-147,66,-200,-199
10,35,25,-22,-7,30,-1,-86,-141,60,-209,-207
11,31,20,-21,-4,26,6,-72,-131,58,-215,-212
13,33,20,-23,-3,27,9,-64,-117,62,-213,-211
16,42,26,-29,-5,34,7,-62,-97,72,-204,-206
22,58,36,-40,-7,47,1,-62,-72,90,-191,-196
31,80,49,-55,-9,65,-13,-66,-44,116,-172,-180
43,107,64,-75,-10,86,-32,-70,-18,149,-145,-159
55,136,81,-95,-13,109,-48,-74,9,188,-113,-132
66,168,102,-117,-18,135,-62,-80,36,231,-78,-104
79,202,123,-140,-22,163,-74,-93,65,284,-37,-72
88,239,151,-163,-31,195,-91,-128,78,336,5,-39
88,278,190,-183,-51,234,-107,-197,53,380,48,-3
83,323,240,-203,-78,282,-123,-308,-15,416,95,37
71,378,307,-224,-118,343,-142,-453,-96,459,153,87
56,435,379,-245,-161,407,-163,-598,-159,512,212,137
40,477,437,-258,-198,457,-183,-708,-193,566,258,175
28,503,475,-265,-223,489,-205,-783,-209,616,289,200
22,518,496,-270,-237,507,-220,-827,-215,665,313,218
19,518,499,-268,-240,509,-217,-846,-216,710,322,225
15,501,486,-258,-235,494,-205,-847,-226,737,311,217
11,471,460,-241,-224,466,-195,-835,-254,721,283,196
2,434,432,-218,-215,433,-185,-818,-301,649,239,166
-9,392,401,-191,-205,397,-173,-799,-357,529,185,131
-21,339,360,-159,-190,350,-166,-766,-409,374,118,87
-30,272,302,-121,-166,287,-162,-711,-452,202,39,32
-38,209,247,-85,-142,228,-168,-658,-487,43,-41,-24
-43,167,210,-62,-126,189,-186,-623,-499,-53,-97,-66
-45,142,187,-48,-116,165,-210,-597,-479,-76,-129,-95
-47,124,171,-38,-109,148,-229,-571,-444,-61,-149,-116
-51,108,159,-28,-105,134,-233,-545,-417,-45,-163,-135
-53,96,149,-21,-101,123,-226,-515,-392,-29,-170,-147
-51,91,142,-20,-96,117,-218,-478,-363,-12,-174,-156
-46,91,137,-22,-91,114,-207,-438,-334,4,-176,-162
-38,94,132,-28,-85,113,-187,-395,-305,20,-176,-166
-30,98,128,-34,-79,113,-163,-354,-277,34,-174,-167
-23,101,124,-39,-73,113,-140,-316,-250,48,-171,-166
-15,104,119,-44,-67,112,-119,-281,-224,62,-167,-164
-7,105,112,-49,-59,109,-102,-251,-203,73,-163,-163
-1,105,106,-52,-53,106,-88,-226,-187,81,-160,-161
1,104,103,-52,-51,104,-77,-209,-176,87,-159,-161
2,102,100,-52,-49,101,-69,-196,-168,90,-157,-159
4,99,95,-51,-45,97,-63,-188,-165,91,-157,-159
6,98,92,-52,-43,95,-58,-181,-161,91,-158,-160
7,97,90,-52,-41,94,-53,-175,-158,91,-160,-162
8,96,88,-52,-40,92,-49,-171,-154,90,-161,-164
8,95,87,-51,-39,91,-46,-167,-151,89,-163,-165
8,93,85,-50,-38,89,-45,-164,-147,89,-165,-167
7,90,83,-48,-38,87,-45,-161,-145,88,-167,-169
7,90,83,-48,-38,87,-43,-158,-144,89,-167,-169
8,89,81,-48,-36,85,-39,-154,-141,90,-166,-168
8,89,81,-48,-36,85,-36,-152,-141,91,-166,-168
8,89,81,-48,-36,85,-36,-150,-142,91,-166,-168
8,89,81,-48,-36,85,-36,-147,-141,92,-166,-168
9,89,80,-49,-35,85,-35,-144,-140,92,-167,-168
10,90,80,-50,-35,85,-35,-144,-139,92,-168,-169
11,90,79,-50,-34,85,-33,-143,-136,92,-168,-170
12,90,78,-51,-33,84,-33,-143,-135,91,-169,-171
12,90,78,-51,-33,84,-32,-141,-133,91,-170,-172
12,90,78,-51,-33,84,-31,-140,-133,92,-170,-172
12,90,78,-51,-33,84,-31,-138,-133,93,-169,-171
12,90,78,-51,-33,84,-30,-137,-132,94,-168,-170
13,91,78,-52,-32,85,-30,-136,-132,95,-166,-168
13,91,78,-52,-32,85,-30,-134,-132,96,-165,-168
14,92,78,-53,-32,85,-31,-133,-131,95,-166,-169
14,93,79,-53,-32,86,-31,-133,-129,96,-166,-169
15,93,78,-54,-31,86,-31,-134,-129,95,-168,-171
15,92,77,-53,-31,85,-30,-133,-127,95,-168,-171
15,92,77,-53,-31,85,-29,-133,-126,95,-168,-171
15,91,76,-53,-30,84,-29,-133,-127,96,-168,-171
15,91,76,-53,-30,84,-29,-132,-127,97,-167,-171
15,92,77,-53,-31,85,-29,-131,-126,98,-166,-170
15,93,78,-54,-31,86,-30,-130,-127,99,-166,-169
15,94,79,-54,-32,87,-31,-129,-127,99,-165,-169
15,94,79,-54,-32,87,-31,-129,-126,99,-165,-169
15,94,79,-54,-32,87,-31,-129,-126,99,-166,-169
15,93,78,-54,-31,86,-30,-130,-125,98,-167,-171
16,92,76,-54,-30,84,-29,-131,-125,97,-168,-172
16,92,76,-54,-30,84,-28,-131,-124,97,-169,-172
15,92,77,-53,-31,85,-27,-129,-123,99,-167,-170
15,92,77,-53,-31,85,-26,-128,-124,100,-167,-170
15,93,78,-54,-31,86,-28,-129,-125,100,-167,-170
16,93,77,-54,-30,85,-28,-128,-125,101,-166,-168
16,94,78,-55,-31,86,-29,-127,-125,101,-165,-168
17,95,78,-56,-30,87,-30,-127,-125,101,-166,-168
18,96,78,-57,-30,87,-31,-128,-124,100,-166,-169
18,95,77,-56,-29,86,-30,-128,-122,102,-166,-169
19,95,76,-57,-28,86,-30,-130,-122,101,-167,-170
19,96,77,-57,-29,87,-30,-130,-121,101,-167,-170
19,96,77,-57,-29,87,-29,-129,-121,102,-167,-169
18,95,77,-56,-29,86,-28,-128,-121,103,-166,-168
17,95,78,-56,-30,87,-28,-127,-121,103,-165,-168
17,96,79,-56,-31,88,-28,-126,-122,105,-163,-167
18,96,78,-57,-30,87,-30,-126,-123,105,-164,-167
18,96,78,-57,-30,87,-32,-127,-123,104,-164,-168
18,95,77,-56,-29,86,-33,-126,-121,104,-163,-167
19,96,77,-57,-29,87,-34,-128,-121,104,-164,-168
19,97,78,-58,-29,88,-33,-128,-119,104,-165,-168
19,96,77,-57,-29,87,-32,-128,-118,104,-166,-168
19,96,77,-57,-29,87,-31,-128,-119,104,-166,-168
18,96,78,-57,-30,87,-30,-128,-119,105,-166,-168
18,96,78,-57,-30,87,-29,-127,-119,106,-165,-168
19,97,78,-58,-29,88,-29,-126,-119,108,-163,-167
20,98,78,-59,-29,88,-32,-125,-120,108,-163,-167
21,98,77,-59,-28,88,-33,-125,-119,109,-163,-166
21,98,77,-59,-28,88,-34,-125,-119,108,-163,-166
21,97,76,-59,-27,87,-34,-126,-118,108,-164,-166
22,97,75,-59,-26,86,-34,-126,-117,108,-165,-166
22,97,75,-59,-26,86,-33,-125,-116,108,-164,-165
23,98,75,-60,-26,87,-33,-126,-116,109,-164,-165
23,98,75,-60,-26,87,-33,-126,-117,110,-164,-165
22,97,75,-59,-26,86,-34,-124,-117,112,-162,-164
21,98,77,-59,-28,88,-35,-124,-117,112,-161,-163
21,99,78,-60,-28,89,-36,-125,-118,112,-161,-163
22,101,79,-61,-28,90,-38,-125,-118,112,-161,-163
23,101,78,-62,-27,90,-38,-125,-117,112,-161,-164
24,101,77,-62,-26,89,-39,-126,-117,112,-162,-164
24,101,77,-62,-26,89,-39,-126,-117,111,-163,-165
24,101,77,-62,-26,89,-38,-126,-117,111,-163,-165
24,101,77,-62,-26,89,-39,-126,-117,112,-162,-164
24,101,77,-62,-26,89,-39,-125,-116,114,-162,-164
24,102,78,-63,-27,90,-40,-125,-117,115,-161,-163
25,103,78,-64,-26,91,-40,-123,-117,117,-157,-162
26,105,79,-65,-26,92,-41,-123,-118,117,-157,-161
27,105,78,-66,-25,92,-42,-124,-118,117,-158,-162
27,106,79,-66,-26,93,-42,-124,-118,117,-158,-162
28,106,78,-67,-25,92,-42,-124,-116,117,-158,-162
28,105,77,-66,-24,91,-43,-124,-115,117,-159,-162
28,104,76,-66,-24,90,-43,-125,-115,117,-160,-163
27,104,77,-65,-25,91,-42,-124,-114,119,-158,-161
27,105,78,-66,-25,92,-43,-124,-115,119,-158,-162
27,105,78,-66,-25,92,-43,-123,-115,120,-156,-160
28,106,78,-67,-25,92,-44,-122,-115,122,-155,-159
29,107,78,-68,-24,93,-45,-122,-116,122,-155,-159
30,107,77,-68,-23,92,-45,-120,-115,123,-155,-158
31,108,77,-69,-23,93,-46,-121,-115,123,-155,-159
32,108,76,-70,-22,92,-46,-121,-115,124,-155,-158
33,108,75,-70,-21,92,-47,-121,-114,124,-155,-159
34,109,75,-71,-20,92,-47,-120,-112,125,-154,-159
34,109,75,-71,-20,92,-47,-120,-113,126,-154,-159
33,109,76,-71,-21,93,-48,-120,-113,127,-153,-158
32,108,76,-70,-22,92,-48,-118,-112,129,-151,-157
32,108,76,-70,-22,92,-48,-117,-112,130,-149,-156
33,107,74,-70,-20,91,-48,-116,-113,131,-149,-155
34,109,75,-71,-20,92,-50,-116,-113,131,-150,-154
36,111,75,-73,-19,93,-52,-117,-113,131,-151,-155
37,112,75,-74,-19,94,-53,-116,-112,132,-150,-154
38,111,73,-74,-17,92,-53,-116,-111,133,-150,-154
38,110,72,-74,-17,91,-53,-115,-110,134,-149,-153
"
		39","
		111","
		72","
		-75","
		-16","
		92","
		-53","
		-115","
		-109","
		136","
		-148","
		-153"
40,112,72,-76,-16,92,-53,-113,-108,139,-146,-151
40,111,71,-75,-15,91,-55,-112,-109,141,-144,-150
40,111,71,-75,-15,91,-56,-110,-109,142,-142,-148
42,113,71,-77,-14,92,-57,-109,-109,145,-140,-146
44,116,72,-80,-14,94,-58,-108,-108,146,-140,-145
46,117,71,-81,-12,94,-59,-108,-109,147,-139,-145
47,118,71,-82,-12,95,-62,-109,-109,148,-140,-146
47,118,71,-82,-12,95,-63,-109,-108,149,-139,-146
48,118,70,-83,-11,94,-63,-108,-107,151,-138,-144
48,118,70,-83,-11,94,-63,-107,-107,154,-135,-142
49,120,71,-84,-11,96,-65,-106,-108,156,-133,-141
51,121,70,-86,-9,96,-67,-104,-108,158,-132,-140
52,121,69,-86,-8,95,-68,-103,-108,161,-130,-138
52,122,70,-87,-9,96,-71,-103,-109,163,-129,-136
53,123,70,-88,-8,97,-72,-102,-108,167,-126,-134
55,124,69,-89,-7,97,-74,-102,-108,169,-125,-133
57,125,68,-91,-5,97,-75,-102,-108,171,-123,-132
58,126,68,-92,-5,97,-76,-102,-108,173,-122,-132
59,126,67,-92,-4,97,-76,-101,-107,176,-121,-130
60,126,66,-93,-3,96,-79,-101,-108,179,-119,-129
61,127,66,-94,-2,97,-80,-100,-108,183,-116,-126
63,129,66,-96,-1,98,-83,-101,-109,186,-113,-125
64,130,66,-97,-1,98,-83,-99,-108,191,-109,-121
66,132,66,-99,0,99,-85,-99,-109,193,-108,-119
68,133,65,-100,2,99,-87,-98,-110,196,-107,-118
70,133,63,-101,4,98,-89,-98,-109,199,-104,-116
71,133,62,-102,5,98,-90,-99,-110,201,-103,-115
72,134,62,-103,5,98,-90,-99,-109,204,-100,-113
73,135,62,-104,6,99,-91,-100,-109,207,-98,-112
74,136,62,-105,6,99,-94,-101,-110,211,-96,-110
75,137,62,-106,7,100,-96,-100,-111,215,-93,-107
75,138,63,-106,6,101,-98,-101,-112,218,-91,-105
76,140,64,-108,6,102,-100,-101,-113,222,-88,-103
78,141,63,-109,8,102,-102,-101,-114,225,-86,-101
79,143,64,-111,8,104,-104,-102,-114,227,-85,-100
80,143,63,-111,9,103,-105,-102,-113,230,-83,-98
81,144,63,-112,9,104,-107,-103,-113,231,-82,-97
82,144,62,-113,10,103,-108,-104,-112,233,-82,-96
82,145,63,-113,10,104,-108,-104,-112,235,-81,-95
83,146,63,-114,10,105,-108,-104,-112,237,-80,-95
83,147,64,-115,10,106,-107,-104,-111,240,-77,-93
82,148,66,-115,8,107,-107,-104,-110,241,-76,-92
82,149,67,-115,8,108,-107,-105,-111,241,-77,-92
82,150,68,-116,7,109,-106,-105,-110,241,-77,-91
81,150,69,-115,6,110,-106,-106,-110,239,-77,-92
79,149,70,-114,5,110,-104,-107,-109,237,-78,-94
77,147,70,-112,4,109,-102,-107,-107,235,-79,-94
76,147,71,-111,3,109,-101,-109,-106,231,-82,-96
74,146,72,-110,1,109,-99,-110,-105,228,-84,-98
71,145,74,-108,-1,110,-97,-112,-106,224,-87,-100
68,145,77,-106,-4,111,-94,-114,-106,220,-89,-103
64,144,80,-104,-8,112,-90,-114,-106,216,-91,-104
61,142,81,-101,-10,112,-87,-115,-107,212,-93,-105
58,140,82,-99,-12,111,-84,-117,-109,206,-96,-108
57,139,82,-98,-12,111,-82,-118,-109,199,-100,-111
55,138,83,-96,-14,111,-80,-120,-109,193,-103,-113
54,137,83,-95,-14,110,-77,-122,-110,188,-107,-116
51,135,84,-93,-16,110,-74,-124,-111,182,-111,-120
47,133,86,-90,-19,110,-70,-126,-111,177,-114,-123
44,131,87,-87,-21,109,-67,-128,-111,172,-117,-125
41,129,88,-85,-23,109,-66,-129,-112,167,-119,-127
38,128,90,-83,-26,109,-65,-132,-115,161,-123,-130
35,127,92,-81,-28,110,-64,-133,-117,157,-125,-132
33,126,93,-79,-30,110,-61,-134,-119,153,-127,-134
32,125,93,-78,-30,109,-59,-135,-120,148,-129,-136
