I,II,III,aVR,aVL,aVF,V1,V2,V3,V4,V5,V6
-185,-24,161,105,-173,69,179,91,38,-6,79,51
-186,-25,161,106,-173,68,177,90,37,-6,78,51
-188,-29,159,109,-173,65,176,88,38,-7,78,50
-189,-30,159,110,-174,65,177,88,38,-8,77,50
-189,-31,158,110,-173,64,177,87,37,-9,75,49
-190,-31,159,111,-174,64,175,87,36,-10,74,47
-187,-28,159,108,-173,66,177,88,38,-8,77,48
-181,-22,159,102,-170,69,179,90,39,-5,80,51
-180,-21,159,101,-169,69,181,91,38,-3,83,54
-185,-25,160,105,-172,68,180,90,37,-4,81,53
-187,-26,161,107,-174,68,179,89,36,-5,76,53
-184,-24,160,104,-172,68,178,88,35,-6,72,53
-182,-22,160,102,-171,69,179,88,35,-6,73,53
-182,-23,159,103,-170,68,178,89,35,-8,77,52
-183,-23,160,103,-171,69,177,88,34,-11,79,51
-184,-24,160,104,-172,68,178,88,34,-11,79,50
-186,-27,159,107,-172,66,178,89,34,-10,77,49
-189,-30,159,110,-174,65,178,89,33,-11,74,48
-191,-31,160,111,-175,65,177,87,31,-12,73,47
-192,-31,161,112,-176,65,178,86,30,-13,72,45
-189,-30,159,110,-174,65,178,87,31,-12,73,45
-186,-28,158,107,-172,65,177,86,31,-11,72,45
-186,-29,157,108,-171,64,176,84,29,-12,73,45
-188,-31,157,110,-172,63,175,82,29,-13,74,46
-185,-28,157,107,-171,65,176,83,29,-13,76,48
-179,-23,156,101,-167,67,178,84,30,-14,74,48
-182,-25,157,104,-169,66,179,85,30,-14,72,48
-188,-30,158,109,-173,64,178,83,27,-17,72,48
-188,-29,159,109,-173,65,179,84,26,-17,74,50
-183,-25,158,104,-170,67,180,84,26,-17,76,50
-184,-26,158,105,-171,66,179,84,26,-16,76,50
-187,-30,157,109,-172,64,177,82,24,-17,74,47
-189,-31,158,110,-173,64,176,82,24,-17,73,46
-190,-32,158,111,-174,63,175,81,25,-17,72,45
-190,-33,157,112,-173,62,175,80,24,-17,71,44
-187,-32,155,110,-171,62,176,81,25,-17,71,45
-184,-29,155,107,-169,63,178,82,25,-17,71,46
-183,-28,155,106,-169,64,178,82,24,-18,71,46
-184,-29,155,107,-169,63,179,81,23,-19,73,46
-185,-29,156,107,-170,64,178,81,22,-21,74,46
-185,-28,157,107,-171,65,177,81,22,-21,75,46
-186,-28,158,107,-172,65,176,80,21,-21,75,45
-188,-31,157,110,-172,63,177,81,22,-19,73,44
-189,-32,157,111,-173,63,176,81,22,-20,69,42
-189,-31,158,110,-173,64,176,80,23,-20,65,43
-187,-31,156,109,-171,63,176,79,21,-22,63,42
-186,-30,156,108,-171,63,177,79,21,-23,67,43
-186,-30,156,108,-171,63,178,79,20,-24,72,44
-190,-33,157,112,-173,62,177,77,18,-24,73,44
-192,-35,157,114,-174,61,175,77,17,-24,71,42
-191,-35,156,113,-173,61,175,78,18,-22,70,42
-190,-35,155,113,-172,60,175,77,17,-22,71,43
-193,-37,156,115,-174,60,173,76,16,-24,70,41
-197,-40,157,119,-177,59,173,76,15,-25,70,40
-196,-39,157,118,-176,59,173,76,15,-26,69,40
-189,-33,156,111,-172,62,177,78,18,-23,70,42
-185,-29,156,107,-170,64,179,79,20,-22,70,42
-186,-29,157,108,-171,64,179,79,19,-23,68,41
-186,-30,156,108,-171,63,179,79,18,-23,68,42
-187,-31,156,109,-171,63,178,78,17,-24,68,42
-189,-32,157,111,-173,63,177,77,15,-24,69,42
-191,-33,158,112,-174,63,176,76,15,-24,70,42
-190,-33,157,112,-173,62,177,77,17,-24,71,43
-185,-29,156,107,-170,64,178,78,18,-23,70,43
-182,-27,155,105,-168,64,178,79,19,-23,69,43
-186,-31,155,109,-170,62,177,78,18,-25,68,41
-192,-37,155,115,-173,59,175,76,16,-27,65,38
-196,-39,157,118,-176,59,175,78,15,-28,65,37
-194,-37,157,116,-175,60,176,77,16,-27,66,37
-191,-35,156,113,-173,61,176,77,16,-26,67,38
-189,-32,157,111,-173,63,177,77,16,-24,68,40
-188,-30,158,109,-173,64,177,77,16,-24,69,42
-188,-31,157,110,-172,63,177,77,17,-24,69,43
-188,-32,156,110,-172,62,176,77,17,-25,68,42
-189,-32,157,111,-173,63,176,76,16,-26,68,41
-189,-32,157,111,-173,63,176,75,16,-27,68,40
-188,-33,155,111,-171,61,177,75,16,-28,69,40
-190,-33,157,112,-173,62,177,76,17,-27,69,41
-192,-34,158,113,-175,62,178,75,15,-27,69,42
-191,-34,157,113,-174,62,177,75,15,-28,69,42
-190,-33,157,112,-173,62,177,76,15,-27,69,41
-189,-33,156,111,-172,62,177,76,15,-27,67,41
-192,-37,155,115,-173,59,175,75,14,-29,65,39
-197,-41,156,119,-176,58,173,74,14,-29,65,37
-195,-40,155,118,-175,58,173,74,14,-28,67,38
-189,-35,154,112,-171,60,175,74,15,-26,68,39
-188,-33,155,111,-171,61,176,74,14,-27,68,40
-194,-39,155,117,-174,58,175,74,12,-29,66,39
-200,-44,156,122,-178,56,173,73,11,-30,63,37
-198,-42,156,120,-177,57,173,74,12,-31,64,37
-192,-35,157,114,-174,61,176,76,15,-29,67,40
-188,-31,157,110,-172,63,178,78,17,-26,69,42
-189,-32,157,111,-173,63,177,76,15,-26,69,43
-189,-31,158,110,-173,64,177,76,16,-27,69,43
-187,-30,157,109,-172,64,177,75,15,-27,70,43
-189,-32,157,111,-173,63,175,73,14,-28,69,41
-193,-38,155,116,-174,59,175,74,13,-29,68,40
-195,-40,155,118,-175,58,174,73,12,-31,67,40
-194,-39,155,117,-174,58,174,73,12,-30,67,41
-192,-36,156,114,-174,60,175,74,13,-28,68,43
-189,-33,156,111,-172,62,175,75,14,-27,69,44
-186,-30,156,108,-171,63,176,75,15,-26,71,45
-186,-29,157,108,-171,64,175,75,16,-26,70,44
-189,-32,157,111,-173,63,174,73,16,-27,69,42
-193,-36,157,115,-175,61,174,73,14,-28,68,41
-195,-37,158,116,-176,61,175,73,14,-29,68,41
-194,-35,159,115,-176,62,176,75,16,-28,68,41
-193,-36,157,115,-175,61,176,76,16,-28,67,42
-192,-36,156,114,-174,60,176,76,15,-27,67,42
-192,-35,157,114,-174,61,175,75,14,-28,68,42
-192,-37,155,115,-173,59,175,75,14,-28,68,41
-194,-39,155,117,-174,58,174,74,13,-29,67,40
-197,-42,155,120,-176,57,172,72,12,-31,66,38
-198,-44,154,121,-176,55,171,71,12,-32,65,37
-194,-39,155,117,-174,58,173,73,13,-30,66,38
-188,-33,155,111,-171,61,177,75,15,-27,69,40
-188,-31,157,110,-172,63,178,76,16,-27,70,42
-191,-34,157,113,-174,62,177,75,14,-28,69,42
-194,-37,157,116,-175,60,176,75,13,-29,67,42
-193,-37,156,115,-174,60,174,74,11,-30,66,41
-191,-36,155,114,-173,60,173,73,11,-30,66,41
-190,-37,153,114,-171,58,173,74,12,-29,67,41
-189,-35,154,112,-171,60,174,74,12,-29,68,41
-189,-35,154,112,-171,60,173,74,13,-29,69,41
-191,-37,154,114,-172,59,172,73,13,-30,69,41
-192,-39,153,116,-172,57,171,72,12,-31,67,40
-193,-40,153,117,-173,57,171,71,12,-32,66,40
-192,-39,153,116,-172,57,173,73,13,-29,67,41
-190,-36,154,113,-172,59,175,74,12,-28,67,41
-191,-37,154,114,-172,59,176,74,13,-27,68,41
-195,-40,155,118,-175,58,174,73,11,-28,67,40
-196,-41,155,119,-175,57,174,73,12,-28,69,42
-192,-38,154,115,-173,58,173,73,11,-30,69,42
-192,-37,155,115,-173,59,172,73,11,-31,68,42
-193,-39,154,116,-173,58,171,72,10,-33,67,41
-192,-38,154,115,-173,58,171,73,11,-32,66,40
-190,-36,154,113,-172,59,173,74,13,-30,68,42
-190,-36,154,113,-172,59,173,73,12,-31,68,42
-193,-38,155,116,-174,59,174,73,11,-30,67,41
-194,-39,155,117,-174,58,173,73,11,-30,66,40
-192,-39,153,116,-172,57,173,74,11,-31,66,41
-191,-39,152,115,-171,57,172,73,11,-32,66,40
-190,-39,151,115,-170,56,172,74,12,-32,67,39
-189,-38,151,114,-170,57,172,74,12,-31,67,39
-188,-37,151,113,-169,57,173,75,13,-30,68,41
-189,-37,152,113,-170,58,173,74,13,-30,68,40
-191,-39,152,115,-171,57,172,73,12,-31,67,39
-192,-40,152,116,-172,56,172,74,12,-30,68,40
-190,-37,153,114,-171,58,173,75,12,-29,68,42
-188,-33,155,111,-171,61,173,74,13,-28,68,43
-189,-32,157,111,-173,63,175,75,14,-28,69,43
-189,-32,157,111,-173,63,174,75,14,-29,69,42
-190,-33,157,112,-173,62,174,76,15,-28,69,42
-190,-33,157,112,-173,62,173,76,16,-28,69,42
-187,-30,157,109,-172,64,174,76,16,-27,69,43
-185,-27,158,106,-171,66,174,77,18,-26,70,44
-187,-27,160,107,-173,67,173,77,18,-25,70,44
-192,-31,161,112,-176,65,173,76,16,-26,69,43
-194,-31,163,113,-178,66,173,77,16,-25,70,44
-190,-27,163,109,-176,68,174,77,16,-25,71,44
-185,-21,164,103,-174,72,176,77,16,-24,71,45
-184,-20,164,102,-174,72,178,79,18,-23,73,46
-186,-22,164,104,-175,71,177,78,18,-24,72,45
-189,-23,166,106,-177,72,174,75,18,-25,71,44
-188,-21,167,105,-177,73,174,76,18,-25,72,46
-186,-18,168,102,-177,75,176,79,21,-22,73,48
-187,-19,168,103,-177,75,175,80,22,-22,71,45
-190,-23,167,107,-178,72,175,81,22,-22,70,44
-189,-23,166,106,-177,72,172,79,20,-23,69,43
-187,-20,167,104,-177,74,171,80,21,-20,71,46
-184,-17,167,101,-175,75,168,76,19,-20,73,49
-183,-15,168,99,-175,77,163,69,16,-21,76,52
-182,-13,169,98,-175,78,159,65,15,-21,78,54
-181,-12,169,97,-175,79,158,64,15,-21,79,55
-181,-14,167,98,-174,77,159,67,16,-21,80,55
-182,-15,167,99,-174,76,160,67,16,-22,78,53
-183,-16,167,100,-175,76,161,68,17,-22,78,53
-186,-17,169,102,-177,76,163,69,17,-21,78,53
-188,-17,171,103,-179,77,164,70,18,-20,78,53
-189,-17,172,103,-180,78,163,69,17,-20,78,52
-189,-17,172,103,-180,78,163,69,16,-21,78,52
-185,-16,169,101,-177,77,164,71,17,-21,80,53
-182,-15,167,99,-174,76,164,72,17,-20,80,52
-181,-16,165,99,-173,75,164,71,17,-20,80,51
-182,-18,164,100,-173,73,165,70,16,-20,79,50
-184,-21,163,103,-173,71,165,70,15,-22,78,49
-186,-24,162,105,-174,69,166,70,13,-24,77,49
-187,-26,161,107,-174,68,168,70,13,-25,77,49
-187,-27,160,107,-173,67,168,70,13,-25,77,50
-185,-26,159,106,-172,67,168,70,14,-24,77,51
-184,-26,158,105,-171,66,170,71,15,-23,78,52
-187,-29,158,108,-172,65,169,72,15,-23,78,50
-191,-33,158,112,-174,63,167,70,14,-25,76,48
-191,-33,158,112,-174,63,167,69,13,-26,74,47
-191,-32,159,112,-175,64,170,71,14,-27,74,46
-191,-33,158,112,-174,63,171,71,14,-28,72,43
-192,-35,157,114,-174,61,173,71,13,-29,70,42
-193,-38,155,116,-174,59,175,73,13,-30,69,42
-195,-40,155,118,-175,58,174,71,11,-32,67,41
-197,-42,155,120,-176,57,173,70,9,-33,65,41
-195,-42,153,119,-174,56,174,71,10,-31,66,40
-193,-42,151,118,-172,55,174,71,9,-31,66,39
-194,-46,148,120,-171,51,174,71,9,-32,66,38
-195,-48,147,122,-171,50,174,71,8,-33,64,37
-193,-46,147,120,-170,51,175,71,8,-34,63,35
-193,-46,147,120,-170,51,175,70,7,-34,64,36
-196,-49,147,123,-171,49,174,69,6,-36,64,36
-198,-50,148,124,-173,49,174,69,6,-36,64,36
-195,-46,149,121,-172,52,174,70,7,-35,65,38
-192,-44,148,118,-170,52,175,71,8,-34,66,39
-193,-45,148,119,-170,52,176,71,8,-33,66,39
-194,-46,148,120,-171,51,176,72,9,-33,66,38
-195,-46,149,121,-172,52,176,73,9,-33,65,37
-196,-47,149,122,-172,51,177,73,9,-33,64,37
-196,-48,148,122,-172,50,176,72,8,-34,62,36
-196,-49,147,123,-171,49,175,72,8,-34,61,35
-196,-49,147,123,-171,49,175,72,8,-33,60,35
-198,-51,147,125,-172,48,175,71,8,-32,61,35
-200,-51,149,126,-174,49,174,69,6,-35,61,34
-197,-48,149,123,-173,51,175,71,7,-35,63,36
-192,-43,149,118,-170,53,176,73,8,-34,66,39
-194,-44,150,119,-172,53,177,73,8,-34,67,39
-198,-49,149,124,-173,50,176,71,7,-34,65,37
-199,-50,149,125,-174,50,176,71,8,-33,65,37
-193,-44,149,119,-171,53,177,73,10,-32,67,39
-188,-39,149,114,-168,55,177,74,12,-31,67,40
-188,-40,148,114,-168,54,178,75,12,-31,66,39
-192,-46,146,119,-169,50,180,78,13,-33,64,36
-196,-53,143,125,-169,45,184,85,17,-33,62,33
-196,-61,135,129,-165,37,190,95,23,-32,58,28
-194,-70,124,132,-159,27,197,110,33,-29,55,23
-195,-84,111,140,-153,14,204,124,43,-27,50,15
-197,-99,98,148,-147,0,211,139,54,-28,41,5
-194,-106,88,150,-141,-9,222,157,70,-26,35,-1
-188,-103,85,146,-136,-9,231,171,86,-21,33,-3
-186,-97,89,142,-137,-4,232,176,97,-16,35,-1
-186,-87,99,137,-142,6,226,173,110,-7,42,5
-180,-66,114,123,-147,24,216,168,125,11,57,18
-169,-36,133,103,-151,49,200,159,140,38,80,40
-159,-1,158,80,-158,79,179,145,154,68,109,66
-149,35,184,57,-166,110,159,128,166,101,145,98
-141,75,216,33,-178,146,140,106,171,136,184,132
-136,117,253,10,-194,185,120,73,164,169,225,167
-136,160,296,-12,-216,228,96,27,131,192,262,202
-139,211,350,-36,-244,281,68,-44,53,198,298,242
-146,279,425,-66,-285,352,34,-153,-73,188,339,289
-163,347,510,-92,-336,429,-3,-279,-212,171,377,337
-183,395,578,-106,-380,487,-34,-373,-309,160,404,372
-192,425,617,-116,-404,521,-57,-422,-354,163,426,394
-193,445,638,-126,-415,542,-70,-450,-378,170,444,411
-195,444,639,-124,-417,542,-65,-459,-388,174,450,414
-200,417,617,-108,-408,517,-40,-443,-380,174,441,402
-201,379,580,-89,-390,480,-10,-414,-371,153,416,377
-203,339,542,-68,-372,441,15,-386,-374,103,378,346
-209,294,503,-42,-356,399,29,-364,-384,35,328,310
-215,239,454,-12,-334,347,39,-337,-387,-39,270,266
-222,173,395,25,-308,284,54,-301,-382,-113,203,214
-230,108,338,61,-284,223,68,-270,-374,-178,138,162
-239,59,298,90,-268,179,75,-250,-359,-213,89,120
-245,28,273,109,-259,151,73,-234,-333,-215,62,91
-247,8,255,120,-251,132,70,-218,-305,-200,47,73
-248,-6,242,127,-245,118,69,-206,-282,-187,40,59
-250,-20,230,135,-240,105,73,-187,-258,-174,36,48
-252,-32,220,142,-236,94,81,-162,-232,-161,32,38
-249,-40,209,145,-229,85,90,-132,-199,-145,32,32
-243,-39,204,141,-223,83,100,-101,-165,-128,36,31
-235,-32,203,134,-219,86,114,-71,-133,-110,42,33
-225,-24,201,125,-213,89,127,-42,-103,-92,48,36
-215,-18,197,117,-206,90,136,-16,-77,-76,55,39
-208,-16,192,112,-200,88,143,7,-55,-62,61,42
-204,-19,185,112,-194,83,151,26,-37,-51,65,44
-203,-25,178,114,-190,77,157,41,-24,-43,68,44
-202,-29,173,116,-187,72,159,48,-16,-39,69,44
-201,-32,169,117,-185,69,161,53,-10,-37,68,43
-198,-34,164,116,-181,65,165,59,-3,-34,67,42
-198,-37,161,118,-179,62,168,64,4,-33,67,42
-198,-40,158,119,-178,59,171,67,8,-34,67,41
-197,-43,154,120,-175,56,174,72,12,-33,67,40
-196,-44,152,120,-174,54,176,76,17,-30,67,39
-195,-45,150,120,-172,53,177,80,19,-27,67,38
-197,-48,149,123,-173,51,177,81,20,-27,66,36
-199,-50,149,125,-174,50,178,84,22,-25,67,37
-196,-47,149,122,-172,51,177,86,25,-23,68,38
-190,-41,149,116,-169,54,178,88,28,-19,70,40
-188,-39,149,114,-168,55,178,89,30,-20,71,40
-190,-41,149,116,-169,54,179,90,34,-20,72,41
-190,-43,147,117,-168,52,179,90,35,-20,70,39
-190,-45,145,118,-167,50,179,90,37,-20,69,38
-191,-48,143,120,-167,48,179,91,37,-21,67,36
-191,-48,143,120,-167,48,181,94,38,-19,68,36
-191,-48,143,120,-167,48,181,96,39,-17,69,37
-193,-50,143,122,-168,47,181,97,40,-16,70,37
-194,-50,144,122,-169,47,180,97,40,-15,70,38
-191,-46,145,119,-168,50,181,98,42,-14,70,39
-190,-45,145,118,-167,50,179,97,43,-14,69,39
-190,-47,143,119,-166,48,178,98,45,-14,70,39
-190,-48,142,119,-166,47,178,97,45,-15,69,38
-191,-49,142,120,-166,47,179,98,46,-14,69,38
-191,-49,142,120,-166,47,180,99,47,-12,68,38
-190,-49,141,120,-165,46,180,100,47,-11,68,37
-189,-49,140,119,-164,46,181,101,48,-9,70,38
"
		-190","
		-50","
		140","
		120","
		-165","
		45","
		180","
		103","
		48","
		-8","
		70","
		37"
-193,-51,142,122,-167,46,178,103,48,-7,69,37
-191,-48,143,120,-167,48,177,102,49,-7,70,37
-186,-43,143,115,-164,50,179,103,50,-8,73,40
-184,-42,142,113,-163,50,179,102,51,-10,75,42
-186,-43,143,115,-164,50,179,101,50,-11,76,42
-187,-45,142,116,-164,49,180,102,51,-11,75,41
-187,-46,141,117,-164,48,179,103,51,-11,74,40
-190,-49,141,120,-165,46,179,103,51,-11,73,38
-191,-50,141,121,-166,46,179,102,50,-10,73,39
-189,-46,143,118,-166,49,180,104,52,-8,74,41
-186,-43,143,115,-164,50,180,105,54,-5,76,43
-186,-42,144,114,-165,51,179,105,54,-5,77,44
-187,-43,144,115,-165,51,177,103,54,-7,77,43
-188,-44,144,116,-166,50,177,103,55,-8,77,43
-189,-46,143,118,-166,49,177,103,56,-8,75,43
-191,-50,141,121,-166,46,176,102,56,-8,73,42
-193,-52,141,123,-167,45,175,103,55,-8,72,40
-191,-51,140,121,-165,45,177,106,57,-6,73,40
-187,-47,140,117,-163,47,179,108,59,-3,75,42
-185,-44,141,115,-163,49,178,108,59,-2,76,43
-185,-42,143,114,-164,51,178,108,59,-1,77,45
-184,-40,144,112,-164,52,178,108,60,1,78,46
-185,-41,144,113,-164,52,177,107,60,0,78,46
-187,-43,144,115,-165,51,175,105,60,-3,76,44
-185,-42,143,114,-164,51,176,106,61,-4,76,44
-182,-41,141,112,-161,50,177,107,62,-3,78,45
-183,-43,140,113,-161,49,178,107,63,-3,77,45
-185,-44,141,115,-163,49,179,108,64,-2,76,44
-185,-44,141,115,-163,49,180,110,64,0,77,44
-186,-45,141,116,-163,48,178,111,65,1,78,44
-186,-44,142,115,-164,49,176,110,64,1,78,43
-183,-40,143,112,-163,52,176,111,66,2,79,45
-182,-39,143,111,-162,52,175,111,66,2,80,47
-182,-39,143,111,-162,52,176,111,67,2,81,47
-182,-39,143,111,-162,52,177,111,68,2,81,47
-182,-40,142,111,-162,51,177,111,68,2,82,48
-184,-43,141,114,-162,49,177,111,67,1,81,47
-184,-43,141,114,-162,49,177,112,67,2,80,46
-184,-42,142,113,-163,50,177,114,68,4,81,46
-184,-41,143,113,-163,51,176,115,69,5,82,46
-184,-40,144,112,-164,52,175,116,69,5,83,46
-184,-38,146,111,-165,54,176,117,70,7,85,48
-183,-38,145,111,-164,54,174,115,71,7,85,49
-182,-37,145,110,-163,54,174,115,73,8,86,50
-181,-37,144,109,-162,54,173,115,73,9,86,51
-181,-38,143,110,-162,53,174,116,74,11,87,51
-180,-38,142,109,-161,52,175,118,76,11,85,49
-178,-36,142,107,-160,53,177,122,78,15,86,49
-179,-36,143,108,-161,54,177,123,79,18,87,50
-181,-36,145,109,-163,55,177,125,80,20,89,51
-182,-36,146,109,-164,55,174,124,79,20,90,51
-182,-36,146,109,-164,55,173,124,79,20,92,53
-180,-34,146,107,-163,56,173,124,81,19,93,53
-178,-32,146,105,-162,57,173,126,83,19,94,54
-178,-32,146,105,-162,57,174,127,86,20,96,56
-178,-33,145,106,-161,56,173,127,86,21,95,55
-179,-35,144,107,-161,55,173,128,86,23,94,55
-180,-35,145,108,-162,55,173,131,87,25,94,54
-179,-34,145,107,-162,56,173,134,90,28,96,56
-177,-31,146,104,-161,58,170,135,90,28,97,56
-177,-30,147,104,-162,59,170,137,92,30,100,58
-174,-27,147,101,-160,60,171,138,94,33,103,61
-171,-23,148,97,-159,63,170,138,96,35,104,63
-171,-22,149,97,-160,64,169,139,98,36,106,64
-172,-23,149,98,-160,63,169,140,99,36,108,65
-171,-22,149,97,-160,64,168,141,100,38,110,66
-170,-20,150,95,-160,65,170,144,103,42,112,67
-170,-20,150,95,-160,65,170,146,104,45,112,68
-172,-21,151,97,-161,65,168,145,104,47,113,68
-172,-20,152,96,-162,66,167,147,105,50,116,70
-168,-14,154,91,-161,70,166,149,106,53,119,72
-165,-10,155,88,-160,73,166,150,108,57,123,75
-166,-11,155,89,-160,72,165,150,109,58,123,77
-168,-11,157,90,-162,73,163,149,110,58,123,77
-165,-9,156,87,-160,74,163,151,113,60,125,79
-163,-6,157,85,-160,76,162,152,114,62,127,80
-163,-5,158,84,-160,77,162,153,115,65,130,82
-163,-4,159,84,-161,78,160,152,114,67,131,82
-162,-2,160,82,-161,79,160,152,114,71,135,84
-160,1,161,80,-160,81,159,153,116,74,138,89
-159,3,162,78,-160,83,158,154,117,77,141,91
-159,5,164,77,-161,85,157,153,117,80,144,92
-159,8,167,76,-163,88,156,152,117,81,145,94
-160,9,169,76,-164,89,154,151,117,81,147,95
-161,8,169,77,-165,89,153,150,117,83,149,96
-159,10,169,75,-164,90,152,149,117,85,150,97
-157,13,170,72,-163,92,153,150,118,88,153,99
-156,14,170,71,-163,92,151,149,116,91,155,101
-154,18,172,68,-163,95,151,148,115,96,158,105
-152,23,175,65,-163,99,150,147,116,99,161,108
-152,24,176,64,-164,100,147,145,115,99,163,110
-152,26,178,63,-165,102,146,143,114,100,165,112
-150,30,180,60,-165,105,146,142,114,102,167,114
-151,30,181,61,-166,106,146,139,113,102,167,114
-155,28,183,64,-169,106,144,135,111,100,166,113
-156,28,184,64,-170,106,144,133,110,99,165,111
-154,30,184,62,-169,107,146,130,108,97,166,111
-154,29,183,63,-168,106,146,128,105,96,167,112
-153,30,183,62,-168,107,146,126,104,95,167,112
-153,31,184,61,-168,108,147,125,102,94,165,111
-156,30,186,63,-171,108,147,123,100,93,164,112
-158,27,185,66,-171,106,144,117,95,88,158,109
-160,26,186,67,-173,106,143,114,91,82,155,105
-159,25,184,67,-171,105,144,112,89,78,153,103
-160,24,184,68,-172,104,147,110,88,74,150,100
-164,20,184,72,-174,102,149,109,85,69,146,97
-168,16,184,76,-176,100,150,106,80,62,139,93
-170,13,183,79,-176,98,152,105,77,58,136,90
-169,14,183,78,-176,99,154,103,75,55,133,88
-168,14,182,77,-175,98,156,103,74,53,131,86
-168,13,181,78,-174,97,157,100,69,50,128,84
-168,11,179,79,-173,95,157,98,65,44,125,82
-170,8,178,81,-174,93,157,95,61,39,122,79
-174,3,177,86,-175,90,156,94,58,33,118,77
-178,-1,177,90,-177,88,156,91,56,26,113,73
-180,-4,176,92,-178,86,159,90,54,22,109,69
-181,-7,174,94,-177,84,160,89,51,19,105,66
-182,-9,173,96,-177,82,162,88,49,15,101,63
-183,-11,172,97,-177,81,162,87,46,13,99,61
-184,-13,171,99,-177,79,162,87,44,10,97,59
-185,-14,171,100,-178,79,162,86,42,8,95,59
-186,-15,171,101,-178,78,162,85,39,5,94,58
-187,-16,171,102,-179,78,162,83,37,1,91,55
-188,-19,169,104,-178,75,164,83,37,0,89,55
-187,-19,168,103,-177,75,165,82,36,-3,87,54
-187,-19,168,103,-177,75,166,82,34,-6,86,52
-190,-24,166,107,-178,71,166,82,32,-8,84,50
-193,-28,165,111,-179,69,164,80,28,-12,82,48
-193,-29,164,111,-178,68,165,80,27,-13,82,48
-192,-28,164,110,-178,68,165,81,26,-14,81,48
-188,-25,163,107,-175,69,167,82,28,-14,82,50
-185,-22,163,104,-174,71,168,83,28,-13,83,51
-186,-23,163,105,-174,70,167,81,27,-14,82,50
-189,-27,162,108,-175,68,168,82,28,-15,81,49
-191,-28,163,110,-177,68,170,83,29,-16,80,49
-191,-28,163,110,-177,68,172,84,29,-17,79,49
-191,-28,163,110,-177,68,173,85,29,-17,78,48
-192,-29,163,111,-177,67,173,85,29,-18,77,46
-192,-30,162,111,-177,66,173,87,29,-18,77,45
-193,-30,163,112,-178,67,172,87,28,-19,77,44
-193,-31,162,112,-177,66,171,87,28,-19,77,44
-193,-31,162,112,-177,66,170,86,28,-18,76,44
-193,-31,162,112,-177,66,169,85,28,-18,76,42
-193,-31,162,112,-177,66,170,85,29,-18,76,41
-193,-32,161,113,-177,65,171,86,30,-18,76,42
-196,-35,161,116,-178,63,169,85,29,-20,75,41
-198,-37,161,118,-179,62,169,85,30,-22,74,41
-193,-32,161,113,-177,65,172,88,31,-20,76,44
-187,-26,161,107,-174,68,174,90,32,-19,77,46
-188,-26,162,107,-175,68,173,91,32,-20,77,46
-191,-29,162,110,-176,67,173,89,31,-19,78,44
-191,-30,161,111,-176,66,171,88,29,-20,77,43
-191,-30,161,111,-176,66,171,89,30,-21,77,44
-191,-31,160,111,-175,65,171,90,33,-21,77,44
-194,-33,161,114,-177,64,171,90,32,-22,76,42
-195,-34,161,115,-178,64,171,90,33,-22,75,40
-193,-33,160,113,-176,64,172,91,34,-21,75,40
-191,-31,160,111,-175,65,173,91,33,-20,76,41
-192,-32,160,112,-176,64,171,89,30,-21,76,40
-195,-35,160,115,-177,63,169,87,29,-22,76,40
-198,-37,161,118,-179,62,168,88,28,-22,75,40
-199,-38,161,119,-180,62,168,88,29,-21,75,40
-195,-35,160,115,-177,63,168,88,29,-22,75,40
-191,-31,160,111,-175,65,170,89,31,-21,76,42
-191,-30,161,111,-176,66,170,89,31,-22,75,42
-191,-30,161,111,-176,66,171,90,32,-22,75,41
-188,-27,161,108,-174,67,173,92,33,-20,76,41
-187,-27,160,107,-173,67,174,92,33,-20,76,41
-192,-31,161,112,-176,65,172,90,31,-21,75,40
-193,-32,161,113,-177,65,170,90,30,-21,76,40
-189,-28,161,109,-175,67,170,90,31,-19,78,42
-188,-27,161,108,-174,67,170,90,31,-19,78,43
-191,-29,162,110,-176,67,169,88,30,-22,77,43
-192,-32,160,112,-176,64,168,87,28,-24,76,42
-191,-31,160,111,-175,65,168,88,29,-24,77,42
-190,-30,160,110,-175,65,168,87,29,-23,76,41
-192,-32,160,112,-176,64,169,87,28,-23,75,40
-194,-33,161,114,-177,64,169,87,27,-23,75,40
-193,-32,161,113,-177,65,169,88,26,-23,75,40
-193,-31,162,112,-177,66,168,87,25,-25,75,40
-195,-32,163,114,-179,66,168,86,25,-25,75,40
-195,-33,162,114,-178,65,167,85,25,-25,76,40
-194,-31,163,113,-178,66,167,85,24,-25,75,39
-193,-31,162,112,-177,66,167,84,23,-25,75,39
-193,-31,162,112,-177,66,167,84,23,-26,76,39
-193,-31,162,112,-177,66,168,84,22,-26,75,39
-193,-31,162,112,-177,66,169,84,22,-26,74,39
-194,-33,161,114,-177,64,169,85,22,-25,74,39
-194,-33,161,114,-177,64,169,85,23,-24,74,38
-193,-30,163,112,-178,67,169,86,23,-23,74,39
-193,-30,163,112,-178,67,168,85,22,-24,74,40
-194,-32,162,113,-178,65,168,83,21,-26,75,39
-194,-34,160,114,-177,63,167,81,19,-28,75,39
-194,-34,160,114,-177,63,166,81,18,-30,75,39
-193,-34,159,114,-176,63,166,80,17,-32,74,38
-194,-34,160,114,-177,63,167,80,18,-32,75,39
-196,-35,161,116,-178,63,169,81,18,-31,74,39
-196,-35,161,116,-178,63,169,82,18,-29,73,38
-196,-35,161,116,-178,63,168,82,17,-28,73,38
-196,-35,161,116,-178,63,168,81,16,-29,74,38
-196,-36,160,116,-178,62,167,79,16,-29,74,38
-197,-36,161,117,-179,63,167,78,15,-30,75,38
-198,-37,161,118,-179,62,166,78,13,-32,74,38
-199,-39,160,119,-179,61,166,77,12,-33,73,37
-201,-41,160,121,-180,60,165,77,12,-34,72,35
-202,-43,159,123,-180,58,165,77,13,-35,70,34
-201,-42,159,122,-180,59,167,78,14,-35,70,34
-197,-38,159,118,-178,61,167,78,13,-34,71,35
-197,-36,161,117,-179,63,167,77,12,-33,71,36
-198,-37,161,118,-179,62,165,76,10,-33,71,35
-198,-37,161,118,-179,62,166,76,10,-32,71,35
-197,-37,160,117,-178,62,166,76,11,-32,72,35
-199,-39,160,119,-179,61,164,74,10,-34,70,34
-198,-37,161,118,-179,62,165,74,11,-35,69,35
-193,-33,160,113,-176,64,168,75,12,-35,69,36
-194,-33,161,114,-177,64,169,75,12,-35,70,35
-196,-35,161,116,-178,63,170,77,12,-34,69,34
-195,-35,160,115,-177,63,170,76,12,-33,68,34
-193,-34,159,114,-176,63,169,76,12,-32,67,34
-195,-35,160,115,-177,63,168,76,10,-32,65,33
-197,-38,159,118,-178,61,167,76,10,-32,65,33
-197,-38,159,118,-178,61,166,75,9,-34,67,34
-196,-36,160,116,-178,62,166,74,8,-36,70,35
-195,-36,159,116,-177,62,166,72,8,-38,72,36
-197,-38,159,118,-178,61,166,71,7,-40,71,36
-199,-41,158,120,-178,59,166,72,7,-40,70,36
-201,-42,159,122,-180,59,167,71,7,-40,68,35
-201,-42,159,122,-180,59,166,71,7,-40,68,34
-201,-42,159,122,-180,59,165,71,6,-40,68,34
-202,-42,160,122,-181,59,164,71,6,-39,67,33
-203,-42,161,123,-182,60,164,71,6,-39,67,32
-204,-42,162,123,-183,60,164,72,6,-37,68,32
-204,-43,161,124,-182,59,162,70,5,-39,66,31
-202,-44,158,123,-180,57,163,71,7,-38,66,30
-199,-42,157,121,-178,58,163,71,7,-39,65,30
-199,-43,156,121,-177,57,163,70,5,-41,64,30
-202,-45,157,124,-179,56,164,70,4,-42,64,30
-202,-45,157,124,-179,56,165,70,4,-43,64,30
-200,-44,156,122,-178,56,165,70,4,-43,64,30
-197,-41,156,119,-176,58,165,70,4,-42,66,32
-194,-38,156,116,-175,59,166,72,6,-39,69,33
-195,-37,158,116,-176,61,165,72,6,-38,70,34
-198,-40,158,119,-178,59,163,71,5,-41,67,33
-199,-42,157,121,-178,58,162,70,5,-42,66,32
-197,-40,157,119,-177,59,163,71,5,-41,66,32
-196,-39,157,118,-176,59,164,71,5,-41,66,32
-198,-42,156,120,-177,57,164,71,5,-41,66,31
-201,-44,157,123,-179,57,163,70,4,-41,65,31
-201,-43,158,122,-179,58,165,70,5,-39,67,32
-200,-41,159,121,-179,59,165,71,6,-38,67,33
-200,-41,159,121,-179,59,164,71,5,-38,66,32
-200,-41,159,121,-179,59,163,70,4,-39,65,31
-202,-43,159,123,-180,58,161,68,3,-42,63,30
-203,-45,158,124,-180,57,161,67,3,-43,62,29
-201,-44,157,123,-179,57,162,68,4,-43,63,29
-199,-42,157,121,-178,58,163,69,5,-41,64,30
-199,-42,157,121,-178,58,163,69,5,-41,64,30
-202,-44,158,123,-180,57,165,71,5,-39,65,31
-202,-44,158,123,-180,57,165,71,5,-39,65,31
-201,-44,157,123,-179,57,164,71,4,-40,64,30
-200,-43,157,122,-178,57,164,71,4,-40,65,31
-200,-42,158,121,-179,58,162,69,2,-40,64,30
-200,-43,157,122,-178,57,162,69,3,-41,64,30
-201,-44,157,123,-179,57,161,68,2,-44,63,29
-201,-45,156,123,-178,56,162,68,3,-44,64,30
-201,-45,156,123,-178,56,162,68,4,-43,65,31
-200,-43,157,122,-178,57,164,70,5,-41,65,31
-199,-42,157,121,-178,58,164,71,6,-40,65,31
-201,-44,157,123,-179,57,164,71,5,-41,64,30
-203,-47,156,125,-179,55,163,70,4,-42,63,29
-202,-46,156,124,-179,55,163,69,4,-42,62,30
-200,-43,157,122,-178,57,163,70,5,-41,64,31
-199,-43,156,121,-177,57,162,69,4,-42,64,30
-199,-44,155,122,-177,56,163,69,4,-41,64,31
-200,-45,155,123,-177,55,162,68,4,-42,64,31
-201,-46,155,124,-178,55,163,68,4,-42,65,31
-201,-46,155,124,-178,55,162,67,3,-43,65,31
-201,-45,156,123,-178,56,163,68,2,-44,65,31
-203,-47,156,125,-179,55,162,68,2,-45,65,30
-205,-49,156,127,-180,54,162,68,1,-45,64,29
-203,-47,156,125,-179,55,162,70,2,-43,65,30
-199,-41,158,120,-178,59,163,71,3,-41,67,32
-198,-40,158,119,-178,59,163,70,4,-42,67,32
-199,-42,157,121,-178,58,163,69,4,-43,65,30
-200,-42,158,121,-179,58,163,68,4,-44,65,29
-201,-43,158,122,-179,58,163,69,4,-43,65,30
-202,-45,157,124,-179,56,163,69,3,-43,64,30
-202,-44,158,123,-180,57,164,70,3,-42,64,31
-202,-44,158,123,-180,57,164,71,3,-42,64,32
-201,-43,158,122,-179,58,164,70,2,-42,65,32
-201,-42,159,122,-180,59,164,70,3,-41,66,32
-202,-43,159,123,-180,58,162,69,2,-41,65,30
-202,-46,156,124,-179,55,161,68,2,-42,63,28
-202,-45,157,124,-179,56,161,68,3,-41,61,28
-201,-43,158,122,-179,58,163,69,4,-41,63,29
-199,-41,158,120,-178,59,164,70,5,-40,64,31
-200,-43,157,122,-178,57,164,69,4,-40,65,32
-202,-45,157,124,-179,56,163,68,2,-40,64,31
-202,-44,158,123,-180,57,164,69,2,-40,65,31
"
		-201","
		-44","
		157","
		123","
		-179","
		57","
		163","
		69","
		1","
		-41","
		64","
		30"
-204,-47,157,126,-180,55,162,68,0,-42,62,29
-209,-51,158,130,-183,54,161,67,-2,-44,61,28
-211,-54,157,133,-184,52,159,65,-2,-45,62,28
-210,-53,157,132,-183,52,157,63,-3,-47,62,28
-204,-47,157,126,-180,55,159,66,-2,-46,64,30
-198,-40,158,119,-178,59,163,69,2,-43,66,32
-199,-41,158,120,-178,59,164,69,2,-43,66,32
-203,-46,157,125,-180,56,162,67,0,-44,65,30
-203,-46,157,125,-180,56,163,68,0,-42,66,31
-200,-42,158,121,-179,58,164,69,1,-41,66,32
-198,-40,158,119,-178,59,163,69,1,-41,66,31
-199,-41,158,120,-178,59,163,70,2,-41,67,31
-200,-42,158,121,-179,58,162,69,1,-41,66,30
-202,-44,158,123,-180,57,162,68,1,-41,65,31
-204,-46,158,125,-181,56,161,67,1,-41,63,28
-205,-46,159,126,-182,57,161,67,1,-40,63,27
-204,-45,159,125,-181,57,164,69,3,-39,65,30
-202,-43,159,123,-180,58,164,69,3,-40,65,30
-201,-40,161,121,-181,61,164,69,2,-41,66,31
-200,-38,162,119,-181,62,164,69,1,-42,67,32
-199,-36,163,118,-181,64,164,70,2,-42,68,33
-195,-32,163,114,-179,66,163,70,3,-41,68,33
-193,-30,163,112,-178,67,162,71,4,-39,70,34
-194,-32,162,113,-178,65,160,71,4,-39,70,34
-196,-34,162,115,-179,64,161,71,4,-39,69,34
-196,-33,163,115,-179,65,163,73,6,-37,70,35
-196,-32,164,114,-180,66,166,75,7,-35,71,35
-198,-33,165,116,-181,66,167,76,7,-35,69,33
-200,-36,164,118,-182,64,166,75,6,-36,67,31
-201,-38,163,120,-182,63,165,74,5,-36,65,29
-201,-37,164,119,-182,64,167,76,6,-36,65,30
-197,-33,164,115,-180,66,168,77,8,-34,67,32
-193,-29,164,111,-178,68,170,79,12,-31,71,35
-190,-29,161,110,-175,66,170,80,13,-30,73,37
-190,-31,159,111,-174,64,169,80,13,-30,75,37
-192,-35,157,114,-174,61,169,81,13,-29,75,36
-193,-37,156,115,-174,60,169,83,14,-28,74,35
-190,-33,157,112,-173,62,167,84,15,-28,74,37
-187,-27,160,107,-173,67,164,82,16,-28,77,41
-188,-25,163,107,-175,69,160,77,15,-28,80,43
-189,-23,166,106,-177,72,153,70,10,-30,80,42
-190,-22,168,106,-179,73,151,67,10,-28,82,44
-191,-23,168,107,-179,73,152,68,12,-27,82,44
-191,-26,165,109,-178,70,153,71,12,-28,80,43
-188,-26,162,107,-175,68,154,71,11,-28,80,43
-188,-26,162,107,-175,68,155,72,11,-28,79,44
-191,-28,163,110,-177,68,156,72,10,-29,77,42
-191,-28,163,110,-177,68,158,71,8,-31,76,40
-188,-25,163,107,-175,69,160,71,8,-31,76,40
-188,-26,162,107,-175,68,161,71,6,-32,75,40
-193,-31,162,112,-177,66,160,70,5,-33,74,37
-196,-37,159,117,-177,61,158,69,4,-33,73,35
-196,-38,158,117,-177,60,158,70,5,-33,74,35
-194,-38,156,116,-175,59,157,69,5,-33,73,35
-194,-39,155,117,-174,58,155,68,4,-34,72,35
-196,-39,157,118,-176,59,156,68,4,-34,73,36
-195,-37,158,116,-176,61,157,69,6,-32,74,37
-194,-36,158,115,-176,61,158,68,5,-33,74,38
-194,-38,156,116,-175,59,158,68,3,-34,75,38
-195,-39,156,117,-175,59,158,68,2,-35,76,38
-196,-39,157,118,-176,59,157,67,1,-36,75,37
-197,-39,158,118,-177,60,157,66,0,-38,74,36
-198,-40,158,119,-178,59,158,67,1,-38,74,37
-198,-40,158,119,-178,59,159,68,1,-38,72,36
-197,-40,157,119,-177,59,160,69,1,-39,70,35
-200,-44,156,122,-178,56,162,69,1,-40,68,33
-202,-47,155,125,-178,54,164,70,1,-42,65,30
-205,-49,156,127,-180,54,164,69,-1,-42,62,27
-207,-53,154,130,-180,51,163,68,-2,-43,61,25
-208,-55,153,132,-180,49,162,67,-3,-43,61,24
-206,-53,153,130,-179,50,163,68,-2,-41,63,26
-204,-51,153,128,-178,51,163,67,-2,-41,66,27
-206,-53,153,130,-179,50,162,65,-4,-43,65,26
-204,-52,152,128,-178,50,162,65,-5,-44,66,27
-199,-46,153,123,-176,54,163,66,-4,-44,67,29
-197,-45,152,121,-174,54,164,67,-3,-43,66,30
-201,-49,152,125,-176,52,163,66,-3,-43,65,29
-205,-51,154,128,-179,52,162,65,-3,-45,64,27
-204,-49,155,127,-179,53,162,65,-3,-45,64,28
-201,-46,155,124,-178,55,164,67,-1,-44,66,29
-200,-46,154,123,-177,54,164,68,-1,-43,67,30
-202,-48,154,125,-178,53,162,67,-2,-43,65,28
-203,-50,153,127,-178,52,161,67,-2,-44,64,27
-203,-49,154,126,-178,53,162,68,-2,-44,64,27
-203,-48,155,126,-179,54,163,68,-2,-44,64,26
-204,-49,155,127,-179,53,164,69,0,-43,63,26
-205,-49,156,127,-180,54,163,67,-1,-44,62,24
-206,-50,156,128,-181,53,163,67,-2,-43,63,24
-206,-51,155,129,-180,52,161,66,-2,-43,63,25
-205,-51,154,128,-179,52,161,67,-1,-42,65,26
-203,-49,154,126,-178,53,163,68,0,-41,67,27
-201,-47,154,124,-177,54,164,68,-1,-40,67,27
-201,-46,155,124,-178,55,163,68,-1,-41,66,28
-202,-47,155,125,-178,54,163,67,-1,-42,66,28
-203,-48,155,126,-179,54,161,66,-1,-43,65,27
-204,-48,156,126,-180,54,162,67,0,-42,65,28
-205,-49,156,127,-180,54,163,69,2,-42,63,26
-206,-54,152,130,-179,49,167,75,6,-41,62,24
-205,-59,146,132,-175,44,172,86,13,-40,60,21
-203,-67,136,135,-169,35,179,100,22,-39,56,15
-202,-78,124,140,-163,23,188,116,31,-38,50,7
-202,-90,112,146,-157,11,197,134,43,-39,43,0
-200,-99,101,150,-150,1,207,152,57,-40,34,-9
-198,-105,93,152,-145,-6,216,166,71,-38,28,-15
-200,-105,95,153,-147,-5,216,172,82,-36,25,-17
-200,-98,102,149,-151,2,212,172,96,-28,30,-13
-193,-80,113,137,-153,17,205,170,114,-9,43,-3
-180,-52,128,116,-154,38,191,165,134,18,66,16
-169,-20,149,95,-159,65,169,154,152,51,96,43
-162,12,174,75,-168,93,144,138,166,84,132,73
-155,49,204,53,-179,127,122,120,178,122,173,108
-143,96,239,24,-191,168,104,99,188,166,218,149
-133,147,280,-7,-206,214,87,68,180,208,263,190
-134,196,330,-31,-232,263,64,8,124,229,305,230
-145,252,397,-53,-271,325,34,-97,5,230,350,277
-162,319,481,-78,-321,400,3,-235,-143,226,395,329
-179,376,555,-98,-367,466,-21,-352,-261,226,432,371
-191,410,601,-109,-396,506,-39,-421,-321,237,458,397
-195,430,625,-117,-410,528,-56,-458,-346,256,481,416
-197,436,633,-119,-415,535,-60,-478,-360,274,496,426
-201,419,620,-109,-410,520,-42,-477,-363,277,491,418
-208,383,591,-87,-399,487,-11,-459,-367,254,466,394
-215,344,559,-64,-387,452,17,-436,-381,196,424,363
-222,306,528,-42,-375,417,38,-416,-400,113,373,328
-229,259,488,-15,-358,374,54,-391,-410,19,313,287
-237,197,434,20,-335,316,69,-354,-409,-74,244,235
-244,132,376,56,-310,254,80,-315,-400,-158,173,181
-249,81,330,84,-289,206,82,-286,-383,-209,117,136
-253,44,297,105,-275,171,77,-267,-357,-218,82,102
-259,14,273,123,-266,144,70,-248,-325,-202,63,75
-264,-7,257,136,-260,125,62,-233,-299,-187,50,56
-264,-18,246,141,-255,114,60,-220,-277,-175,45,44
-260,-24,236,142,-248,106,63,-200,-253,-163,42,35
-256,-31,225,144,-240,97,69,-170,-224,-150,40,29
-254,-36,218,145,-236,91,78,-138,-193,-137,42,25
-249,-34,215,142,-232,91,91,-104,-160,-122,46,25
-239,-27,212,133,-225,93,106,-72,-129,-106,52,27
-230,-23,207,127,-218,92,117,-42,-101,-92,57,31
-227,-26,201,127,-214,88,123,-18,-77,-78,61,32
-224,-29,195,127,-209,83,130,5,-56,-64,65,34
-217,-29,188,123,-202,80,139,27,-39,-54,70,36
-212,-30,182,121,-197,76,144,38,-28,-48,71,36
-212,-34,178,123,-195,72,148,44,-21,-44,72,36
-211,-36,175,124,-193,70,151,50,-15,-43,71,34
-210,-38,172,124,-191,67,155,56,-7,-42,71,33
-209,-39,170,124,-189,66,158,61,0,-40,69,32
-207,-40,167,124,-187,64,162,66,6,-38,67,30
-205,-41,164,123,-184,62,165,71,12,-35,66,29
-205,-44,161,125,-183,59,166,74,15,-33,66,29
-204,-45,159,125,-181,57,168,78,18,-31,69,29
-202,-43,159,123,-180,58,167,81,19,-29,70,29
-202,-43,159,123,-180,58,165,82,19,-27,70,29
-205,-45,160,125,-182,58,163,82,18,-27,71,30
-206,-47,159,127,-182,56,163,83,20,-28,72,31
-205,-46,159,126,-182,57,163,83,23,-29,70,31
-203,-45,158,124,-180,57,164,85,26,-29,70,32
-201,-45,156,123,-178,56,167,88,29,-28,70,32
-202,-48,154,125,-178,53,167,89,31,-28,69,29
-204,-51,153,128,-178,51,167,91,32,-27,69,28
-203,-50,153,127,-178,52,168,93,33,-24,70,29
-199,-45,154,122,-176,55,169,95,35,-21,72,30
-198,-43,155,121,-176,56,169,96,35,-20,72,31
-201,-45,156,123,-178,56,167,95,34,-20,72,32
-202,-46,156,124,-179,55,166,94,34,-22,71,30
-201,-44,157,123,-179,57,167,96,36,-21,71,30
-199,-42,157,121,-178,58,168,97,38,-20,71,31
-198,-44,154,121,-176,55,169,98,41,-20,69,29
-200,-48,152,124,-176,52,169,99,42,-20,68,26
-203,-51,152,127,-177,51,169,99,41,-19,68,25
-202,-50,152,126,-177,51,170,101,42,-17,70,27
-198,-47,151,123,-174,52,171,102,42,-15,73,30
-196,-43,153,120,-174,55,170,100,42,-14,76,33
-196,-42,154,119,-175,56,168,100,41,-14,77,35
-196,-41,155,119,-175,57,166,99,41,-14,76,35
-196,-41,155,119,-175,57,166,100,43,-15,76,35
-196,-41,155,119,-175,57,167,100,44,-16,76,35
-196,-42,154,119,-175,56,168,100,44,-18,75,34
-196,-43,153,120,-174,55,168,99,46,-19,73,33
-195,-43,152,119,-173,55,170,102,47,-17,74,33
-194,-43,151,119,-172,54,171,104,48,-14,76,33
-194,-43,151,119,-172,54,170,104,47,-13,76,33
-194,-42,152,118,-173,55,167,102,46,-13,75,32
-194,-40,154,117,-174,57,167,104,47,-10,78,35
-195,-39,156,117,-175,59,166,103,47,-10,78,36
-198,-42,156,120,-177,57,165,102,48,-11,78,35
-200,-45,155,123,-177,55,165,100,48,-13,76,32
-201,-47,154,124,-177,54,166,101,50,-13,75,31
-198,-46,152,122,-175,53,167,102,52,-13,75,32
-195,-45,150,120,-172,53,168,104,53,-11,76,33
-195,-45,150,120,-172,53,169,105,53,-11,77,34
-195,-44,151,120,-173,54,167,105,52,-12,77,34
-195,-41,154,118,-174,57,167,106,53,-10,78,35
-194,-38,156,116,-175,59,167,106,55,-8,78,37
-193,-38,155,116,-174,59,167,106,55,-7,78,37
-196,-41,155,119,-175,57,165,106,56,-8,78,37
-198,-44,154,121,-176,55,164,105,56,-10,77,35
-197,-44,153,121,-175,55,165,105,57,-9,78,36
-195,-42,153,119,-174,56,167,106,59,-8,79,37
-193,-40,153,117,-173,57,169,108,60,-7,79,38
-192,-38,154,115,-173,58,170,111,60,-5,81,39
-194,-41,153,118,-173,56,168,110,60,-5,80,38
-198,-43,155,121,-176,56,165,108,58,-6,80,37
-196,-39,157,118,-176,59,164,109,59,-4,82,38
-193,-35,158,114,-175,62,164,111,61,-2,83,40
-193,-37,156,115,-174,60,162,109,61,-4,82,39
-192,-37,155,115,-173,59,162,110,62,-3,82,40
-188,-33,155,111,-171,61,164,112,65,-3,82,40
-187,-33,154,110,-170,61,165,113,67,-1,82,40
-192,-39,153,116,-172,57,165,113,67,0,81,38
-197,-43,154,120,-175,56,164,113,66,1,80,36
-197,-43,154,120,-175,56,164,114,66,3,80,37
-195,-40,155,118,-175,58,163,115,67,4,82,38
-196,-40,156,118,-176,58,160,115,67,4,83,39
-198,-41,157,120,-177,58,157,114,66,3,83,40
-196,-41,155,119,-175,57,155,114,67,2,83,41
-192,-37,155,115,-173,59,157,115,69,3,84,42
-186,-31,155,109,-170,62,161,119,73,7,86,44
-182,-28,154,105,-168,63,164,123,77,10,87,45
-183,-29,154,106,-168,63,163,124,78,12,86,43
-187,-32,155,110,-171,62,163,125,78,14,87,43
-189,-33,156,111,-172,62,161,125,78,16,87,43
-187,-30,157,109,-172,64,160,126,79,18,91,45
-183,-26,157,105,-170,66,159,127,79,18,94,48
-183,-25,158,104,-170,67,158,128,80,19,98,51
-184,-26,158,105,-171,66,157,129,82,19,98,52
-185,-27,158,106,-171,66,155,129,82,19,96,51
-185,-28,157,107,-171,65,156,131,85,20,95,51
-184,-28,156,106,-170,64,155,132,87,20,96,51
-182,-28,154,105,-168,63,156,135,90,24,99,52
-181,-28,153,105,-167,63,155,136,90,26,100,52
-182,-27,155,105,-168,64,154,137,91,28,101,53
-183,-26,157,105,-170,66,152,138,91,28,101,53
-183,-23,160,103,-171,69,152,140,91,31,104,56
-180,-19,161,100,-170,71,151,142,93,33,107,59
-177,-18,159,98,-168,71,150,143,96,35,108,60
-178,-18,160,98,-169,71,149,144,97,37,109,61
-178,-18,160,98,-169,71,150,146,99,39,111,63
-175,-16,159,96,-167,72,149,147,101,41,112,63
-175,-17,158,96,-166,71,150,151,105,45,115,64
-176,-17,159,97,-167,71,148,153,105,48,116,64
-174,-14,160,94,-167,73,147,154,105,52,119,66
-172,-10,162,91,-167,76,147,156,106,55,123,69
-172,-9,163,91,-167,77,145,157,107,58,126,71
-172,-6,166,89,-169,80,143,157,109,59,129,74
-168,-2,166,85,-167,82,142,157,111,62,130,75
-167,0,167,84,-167,84,142,158,112,65,132,77
-169,-1,168,85,-168,84,141,159,113,66,134,77
-170,-2,168,86,-169,83,140,159,114,68,136,78
-169,-1,168,85,-168,84,141,161,115,72,138,80
-167,1,168,83,-167,85,141,163,116,77,142,84
-164,5,169,80,-166,87,139,164,117,81,145,87
-162,9,171,77,-166,90,138,164,117,85,148,90
-163,12,175,76,-169,94,136,163,117,87,151,93
-167,12,179,78,-173,96,134,161,116,88,152,95
-169,11,180,79,-174,96,133,161,117,91,153,96
-167,13,180,77,-173,97,132,161,118,93,155,97
-165,15,180,75,-172,98,131,161,119,95,158,99
-165,14,179,76,-172,97,130,158,118,96,161,101
-165,15,180,75,-172,98,130,158,118,100,166,104
-161,22,183,70,-172,103,129,158,117,102,170,108
-157,27,184,65,-170,106,128,156,116,106,172,110
-157,28,185,65,-171,107,127,154,115,108,174,113
-159,28,187,66,-173,108,124,151,112,108,176,114
-161,28,189,67,-175,109,124,149,111,109,179,116
-158,32,190,63,-174,111,124,146,111,111,180,118
-155,36,191,60,-173,114,125,144,111,113,180,118
-155,34,189,61,-172,112,126,143,111,112,181,118
-157,32,189,63,-173,111,126,140,110,110,179,117
-157,32,189,63,-173,111,127,137,109,109,178,117
-157,32,189,63,-173,111,127,134,106,106,176,116
-160,29,189,66,-174,109,127,131,103,103,174,114
-165,26,191,70,-178,109,127,128,100,100,172,111
-169,24,193,73,-181,109,129,125,97,97,168,109
-167,26,193,71,-180,110,131,122,95,94,166,108
-163,29,192,67,-177,111,132,119,93,89,164,106
-165,26,191,70,-178,109,133,116,90,83,160,102
-171,19,190,76,-180,105,133,113,86,76,154,97
-173,15,188,79,-180,102,135,111,85,71,148,92
-174,13,187,81,-180,100,138,109,83,68,144,89
-180,8,188,86,-184,98,139,108,78,62,140,85
-184,3,187,91,-185,95,140,106,74,57,134,81
-182,6,188,88,-185,97,144,105,72,53,132,79
-178,10,188,84,-183,99,148,104,70,50,132,80
-180,8,188,86,-184,98,147,100,65,43,128,77
-184,3,187,91,-185,95,148,96,61,37,125,74
-184,1,185,92,-184,93,150,94,59,34,122,72
-184,0,184,92,-184,92,152,92,55,29,117,69
-188,-6,182,97,-185,88,153,91,52,24,112,66
-192,-11,181,102,-186,85,153,89,49,19,109,63
-193,-12,181,103,-187,85,154,88,46,14,107,62
-192,-13,179,103,-185,83,155,87,43,9,104,60
-195,-17,178,106,-186,81,154,85,39,5,101,57
-198,-19,179,109,-188,80,153,83,36,1,98,55
-198,-19,179,109,-188,80,155,84,36,-1,97,55
-197,-17,180,107,-188,82,156,85,36,-3,95,54
-196,-19,177,108,-186,79,157,84,35,-6,92,52
-196,-20,176,108,-186,78,159,84,35,-7,90,50
-196,-22,174,109,-185,76,159,82,33,-10,87,47
-198,-25,173,112,-185,74,161,82,31,-10,87,46
"
		-199","
		-26","
		173","
		113","
		-186","
		74","
		162","
		83","
		30","
		-10","
		88","
		47"
-201,-27,174,114,-187,74,162,83,29,-10,87,46
-204,-30,174,117,-189,72,160,81,27,-14,85,45
-205,-30,175,118,-190,73,160,80,26,-16,83,44
-202,-27,175,115,-188,74,161,83,27,-18,82,44
-202,-27,175,115,-188,74,162,83,28,-19,82,42
-203,-28,175,116,-189,74,163,84,29,-18,83,42
-201,-26,175,114,-188,75,164,84,30,-18,82,41
-201,-28,173,115,-187,73,165,85,30,-18,82,42
-203,-32,171,118,-187,70,164,83,27,-20,82,42
-203,-32,171,118,-187,70,163,82,25,-21,82,43
-200,-29,171,115,-185,71,166,86,28,-19,84,45
-198,-27,171,113,-184,72,167,88,29,-17,84,45
-200,-28,172,114,-186,72,167,87,30,-15,84,44
-202,-30,172,116,-187,71,165,87,29,-17,83,43
-205,-32,173,119,-189,71,165,87,29,-19,82,42
-207,-34,173,121,-190,70,164,86,28,-20,80,40
-206,-33,173,120,-189,70,165,86,29,-20,79,40
-202,-31,171,117,-186,70,166,86,31,-19,78,41
-200,-30,170,115,-185,70,167,87,31,-21,79,41
-198,-30,168,114,-183,69,166,88,30,-21,81,42
-200,-32,168,116,-184,68,165,88,30,-21,81,40
-203,-34,169,119,-186,68,165,89,30,-21,80,39
-204,-34,170,119,-187,68,165,89,30,-21,79,39
-202,-32,170,117,-186,69,165,90,31,-20,79,40
-201,-32,169,117,-185,69,164,90,31,-21,79,39
-203,-34,169,119,-186,68,164,90,31,-21,79,39
-202,-33,169,118,-185,68,164,90,32,-21,79,38
-198,-30,168,114,-183,69,165,92,34,-20,80,40
-196,-29,167,113,-181,69,165,93,34,-19,80,40
-198,-30,168,114,-183,69,166,93,33,-19,78,39
-199,-31,168,115,-183,69,165,92,32,-20,76,36
-200,-31,169,116,-184,69,165,92,32,-19,77,36
-201,-32,169,117,-185,69,163,90,30,-20,77,36
-202,-32,170,117,-186,69,164,91,31,-19,78,37
-200,-30,170,115,-185,70,165,91,31,-19,78,38
-198,-29,169,114,-183,70,163,91,31,-20,80,39
-200,-31,169,116,-184,69,163,91,32,-20,80,40
-201,-33,168,117,-184,68,165,91,33,-20,79,39
-200,-32,168,116,-184,68,167,92,34,-19,78,39
-197,-30,167,114,-182,69,165,92,32,-19,76,38
-198,-31,167,115,-182,68,165,92,32,-19,77,38
-199,-31,168,115,-183,69,165,91,30,-21,76,38
-199,-30,169,115,-184,70,165,91,29,-20,78,39
-200,-31,169,116,-184,69,164,90,29,-20,78,39
-200,-32,168,116,-184,68,162,89,29,-20,77,40
-197,-28,169,113,-183,71,165,91,30,-19,78,41
-194,-25,169,110,-181,72,167,92,32,-18,79,42
-196,-28,168,112,-182,70,167,92,32,-19,78,41
-197,-31,166,114,-181,68,167,92,32,-18,79,41
-196,-29,167,113,-181,69,166,91,30,-16,80,42
-195,-28,167,112,-181,70,165,90,28,-17,79,41
-195,-28,167,112,-181,70,165,90,27,-18,79,41
-196,-28,168,112,-182,70,165,89,25,-19,78,41
-197,-28,169,113,-183,71,165,89,25,-21,78,42
-196,-27,169,112,-182,71,164,88,25,-24,78,41
-195,-27,168,111,-181,71,163,88,26,-23,79,41
-197,-29,168,113,-182,70,163,87,25,-23,77,39
-200,-33,167,117,-183,67,164,87,24,-23,76,39
-200,-34,166,117,-183,66,165,87,24,-23,77,40
-200,-36,164,118,-182,64,164,86,21,-24,75,40
-202,-38,164,120,-183,63,163,84,20,-25,74,39
-201,-36,165,119,-183,65,164,84,20,-26,75,38
-198,-33,165,116,-181,66,165,84,19,-26,77,40
-198,-32,166,115,-182,67,164,83,18,-26,76,39
-198,-31,167,115,-182,68,165,84,19,-26,76,39
-198,-30,168,114,-183,69,166,84,20,-26,75,39
-198,-32,166,115,-182,67,164,83,19,-28,73,37
-196,-31,165,114,-180,67,165,83,19,-28,72,37
-194,-29,165,112,-179,68,167,84,19,-27,72,38
-197,-32,165,115,-181,67,166,83,17,-27,71,37
-201,-36,165,119,-183,65,165,82,15,-28,71,36
-202,-36,166,119,-184,65,164,81,13,-29,72,35
-202,-35,167,119,-184,66,165,82,13,-27,73,36
-199,-32,167,116,-183,68,164,82,14,-27,74,37
-196,-30,166,113,-181,68,164,81,14,-28,73,37
-197,-31,166,114,-181,68,164,80,13,-31,72,37
-200,-34,166,117,-183,66,164,79,13,-33,72,37
-200,-34,166,117,-183,66,165,79,13,-33,72,37
-198,-33,165,116,-181,66,166,80,14,-32,73,36
-197,-33,164,115,-180,66,165,81,13,-31,71,36
-198,-34,164,116,-181,65,166,81,13,-30,71,35
-198,-34,164,116,-181,65,165,80,12,-30,71,34
-199,-33,166,116,-182,67,165,80,12,-29,72,35
-199,-32,167,116,-183,68,165,80,12,-28,72,36
-200,-34,166,117,-183,66,164,79,12,-30,71,35
-203,-37,166,120,-184,65,164,79,11,-31,71,35
-202,-37,165,120,-183,64,163,78,9,-33,69,33
-201,-37,164,119,-182,64,163,78,9,-33,68,33
-200,-37,163,119,-181,63,163,78,9,-34,69,33
-201,-38,163,120,-182,63,164,77,9,-34,69,33
-201,-38,163,120,-182,63,163,77,8,-33,70,34
-202,-37,165,120,-183,64,163,76,7,-34,71,34
-202,-37,165,120,-183,64,162,76,7,-35,72,35
-203,-37,166,120,-184,65,163,77,8,-34,73,37
-203,-37,166,120,-184,65,164,77,8,-33,72,37
-204,-37,167,121,-185,65,163,77,8,-34,71,36
-205,-39,166,122,-185,64,162,77,8,-35,70,35
-205,-39,166,122,-185,64,163,77,10,-35,70,34
-202,-36,166,119,-184,65,165,79,11,-33,70,35
-200,-34,166,117,-183,66,167,79,10,-32,72,37
-201,-36,165,119,-183,65,164,78,8,-33,72,36
-204,-39,165,122,-184,63,161,75,5,-35,70,34
-204,-37,167,121,-185,65,161,75,6,-35,70,36
-200,-34,166,117,-183,66,163,78,8,-33,72,38
-200,-33,167,117,-183,67,163,76,8,-35,71,37
-201,-34,167,118,-184,67,164,75,8,-36,70,37
-201,-35,166,118,-183,66,164,76,9,-36,70,38
-201,-36,165,119,-183,65,164,77,9,-35,70,38
-201,-37,164,119,-182,64,164,77,7,-37,69,35
-203,-39,164,121,-183,63,164,77,6,-37,69,34
-205,-40,165,123,-185,63,162,75,5,-36,69,34
-208,-43,165,126,-186,61,160,73,4,-37,68,34
-208,-43,165,126,-186,61,160,73,5,-37,69,33
-206,-39,167,123,-186,64,161,74,6,-35,69,34
-203,-34,169,119,-186,68,163,75,7,-34,70,35
-201,-33,168,117,-184,68,162,75,8,-34,71,36
-201,-34,167,118,-184,67,161,74,7,-36,70,35
-203,-37,166,120,-184,65,162,74,6,-37,70,36
-204,-39,165,122,-184,63,163,74,5,-39,70,36
-204,-39,165,122,-184,63,163,75,5,-38,72,36
-203,-36,167,120,-185,66,163,75,5,-36,72,35
-202,-33,169,118,-185,68,163,77,7,-34,72,36
-200,-32,168,116,-184,68,163,76,6,-35,70,35
-200,-33,167,117,-183,67,161,74,6,-36,69,33
-202,-35,167,119,-184,66,160,74,7,-36,69,32
-205,-37,168,121,-186,66,160,73,7,-37,68,31
-207,-38,169,123,-188,66,161,73,7,-37,67,32
-206,-39,167,123,-186,64,162,73,6,-38,67,32
-205,-39,166,122,-185,64,161,73,5,-39,68,33
-204,-40,164,122,-184,62,161,73,3,-38,70,34
-202,-37,165,120,-183,64,162,73,3,-37,72,35
-200,-34,166,117,-183,66,163,73,5,-35,73,36
-201,-35,166,118,-183,66,162,72,4,-37,71,34
-203,-37,166,120,-184,65,160,71,2,-40,71,34
-202,-36,166,119,-184,65,159,70,2,-42,72,35
-200,-33,167,117,-183,67,160,70,3,-41,72,36
-201,-33,168,117,-184,68,162,70,3,-39,71,35
-203,-37,166,120,-184,65,162,70,3,-39,69,34
-204,-38,166,121,-185,64,162,71,3,-39,68,33
-203,-38,165,121,-184,64,163,72,4,-38,68,33
-203,-37,166,120,-184,65,163,73,4,-38,69,32
-204,-38,166,121,-185,64,161,71,3,-40,69,31
-205,-38,167,122,-186,65,160,70,3,-39,70,32
-204,-36,168,120,-186,66,161,71,4,-38,69,32
-203,-34,169,119,-186,68,161,71,4,-37,69,32
-205,-35,170,120,-187,68,161,71,3,-38,68,32
-207,-37,170,122,-188,67,160,70,2,-39,67,30
-207,-40,167,124,-187,64,159,69,1,-41,66,29
-207,-41,166,124,-186,63,160,69,1,-42,66,30
-205,-39,166,122,-185,64,161,70,2,-40,68,32
-202,-35,167,119,-184,66,162,72,3,-38,70,33
-199,-32,167,116,-183,68,163,74,4,-36,70,33
-200,-32,168,116,-184,68,163,73,4,-36,68,32
-205,-37,168,121,-186,66,162,72,3,-37,66,31
-209,-41,168,125,-188,64,161,70,2,-39,64,30
-208,-41,167,125,-187,63,161,70,2,-40,64,30
-203,-37,166,120,-184,65,161,71,3,-39,65,32
-200,-34,166,117,-183,66,163,72,5,-38,66,32
-201,-34,167,118,-184,67,163,71,4,-38,65,32
-202,-36,166,119,-184,65,163,71,2,-38,64,31
-203,-37,166,120,-184,65,162,71,2,-37,64,32
-203,-37,166,120,-184,65,162,71,2,-37,66,32
-203,-37,166,120,-184,65,161,70,1,-36,68,33
-205,-39,166,122,-185,64,159,67,-1,-38,68,33
-206,-38,168,122,-187,65,158,67,-2,-39,67,33
-202,-34,168,118,-185,67,160,69,0,-40,67,33
-199,-32,167,116,-183,68,163,70,3,-39,66,33
-199,-33,166,116,-182,67,163,70,3,-40,65,32
-200,-34,166,117,-183,66,164,71,4,-39,66,33
-202,-35,167,119,-184,66,164,71,3,-38,65,32
-204,-35,169,120,-186,67,163,71,2,-38,64,30
-203,-34,169,119,-186,68,164,72,3,-37,65,30
-201,-32,169,117,-185,69,163,71,3,-38,65,29
-200,-32,168,116,-184,68,161,70,2,-37,65,29
-200,-31,169,116,-184,69,160,70,2,-37,66,31
-199,-31,168,115,-183,69,159,69,1,-37,66,32
-200,-33,167,117,-183,67,160,68,0,-39,66,31
-203,-37,166,120,-184,65,161,68,0,-40,65,30
-206,-39,167,123,-186,64,159,66,-2,-41,64,29
-207,-40,167,124,-187,64,159,67,-1,-38,64,29
-203,-37,166,120,-184,65,160,69,0,-38,64,29
-199,-34,165,117,-182,66,161,70,0,-38,64,31
-197,-31,166,114,-181,68,162,71,0,-39,66,33
-198,-32,166,115,-182,67,161,69,-2,-42,66,32
-201,-35,166,118,-183,66,159,67,-3,-43,65,31
-201,-36,165,119,-183,65,159,67,-1,-41,66,31
-198,-33,165,116,-181,66,162,69,0,-40,67,32
-198,-32,166,115,-182,67,164,70,1,-40,66,31
-199,-33,166,116,-182,67,164,70,0,-39,66,31
-197,-32,165,115,-181,67,165,70,1,-38,67,32
-195,-30,165,113,-180,68,165,71,1,-38,67,32
-199,-33,166,116,-182,67,161,69,-3,-41,64,29
-204,-37,167,121,-185,65,158,68,-5,-42,63,28
-201,-32,169,117,-185,69,159,68,-3,-40,64,29
-194,-25,169,110,-181,72,162,70,1,-39,66,31
-192,-24,168,108,-180,72,163,70,0,-39,65,31
-194,-25,169,110,-181,72,164,69,0,-39,66,31
-195,-25,170,110,-182,73,166,71,2,-37,66,31
-193,-24,169,109,-181,73,167,72,3,-36,67,31
-191,-24,167,108,-179,72,167,72,4,-34,67,31
-190,-24,166,107,-178,71,165,72,3,-35,68,31
-190,-23,167,107,-178,72,165,71,2,-36,69,32
-189,-22,167,106,-178,73,166,72,2,-37,70,33
-187,-21,166,104,-176,73,167,73,3,-37,70,34
-187,-20,167,104,-177,74,166,72,2,-39,70,34
-188,-20,168,104,-178,74,165,70,1,-40,69,33
-187,-21,166,104,-176,73,165,70,0,-41,69,32
-188,-22,166,105,-177,72,165,70,1,-40,69,33
-189,-22,167,106,-178,73,165,70,1,-41,69,32
-190,-23,167,107,-178,72,166,71,2,-40,69,32
-190,-22,168,106,-179,73,165,70,1,-40,67,30
-190,-21,169,106,-179,74,165,71,2,-38,68,30
-190,-20,170,105,-180,75,165,72,3,-37,69,32
-190,-18,172,104,-181,77,164,71,2,-37,69,32
-190,-18,172,104,-181,77,163,69,1,-38,69,31
-191,-18,173,105,-182,78,163,69,0,-38,68,31
-189,-17,172,103,-180,78,164,70,2,-37,69,33
-186,-16,170,101,-178,77,166,73,5,-35,71,34
-185,-16,169,101,-177,77,166,73,6,-36,70,34
-186,-17,169,102,-177,76,165,73,5,-38,69,33
-187,-17,170,102,-178,77,165,75,6,-38,69,33
-188,-16,172,102,-180,78,165,76,6,-36,69,33
-186,-13,173,100,-179,80,166,77,6,-35,69,34
-184,-11,173,98,-178,81,168,78,7,-34,69,35
-187,-15,172,101,-179,79,167,77,7,-35,68,33
-192,-20,172,106,-182,76,166,75,6,-35,69,31
-190,-18,172,104,-181,77,170,76,7,-32,71,33
-181,-10,171,96,-176,81,172,79,10,-30,71,34
-177,-8,169,93,-173,81,172,80,12,-28,70,34
-179,-12,167,96,-173,78,170,82,13,-28,69,31
-178,-12,166,95,-172,77,169,84,14,-28,69,33
-174,-9,165,92,-169,78,170,87,16,-26,73,36
-173,-8,165,91,-169,79,168,86,15,-25,76,38
-175,-7,168,91,-171,81,166,84,14,-24,79,41
-176,-5,171,91,-173,83,163,82,15,-23,80,44
-177,-3,174,90,-175,86,160,78,13,-25,80,44
-178,-2,176,90,-177,87,157,73,12,-27,78,42
-179,-2,177,91,-178,88,156,71,12,-26,78,43
-179,-2,177,91,-178,88,157,72,13,-24,79,43
-179,-4,175,92,-177,86,159,73,13,-25,77,41
-180,-9,171,95,-175,81,159,72,10,-28,75,39
-181,-11,170,96,-175,80,158,71,8,-29,74,37
-180,-9,171,95,-175,81,159,71,7,-29,74,36
-180,-9,171,95,-175,81,160,71,6,-31,73,36
-183,-11,172,97,-177,81,162,70,4,-34,72,36
-184,-13,171,99,-177,79,163,71,3,-35,72,36
-183,-14,169,99,-176,78,163,71,3,-35,72,35
-183,-16,167,100,-175,76,163,72,5,-34,72,36
-183,-18,165,101,-174,74,164,73,6,-32,72,37
-182,-17,165,100,-173,74,163,73,6,-32,69,35
-182,-16,166,99,-174,75,162,72,6,-33,67,34
-185,-18,167,102,-176,75,161,71,4,-33,67,33
-188,-18,170,103,-179,76,161,71,4,-34,67,32
-188,-19,169,104,-178,75,162,70,4,-34,68,32
-187,-20,167,104,-177,74,161,70,4,-35,68,32
-186,-18,168,102,-177,75,163,71,4,-34,69,32
-184,-16,168,100,-176,76,164,71,3,-34,71,32
-186,-17,169,102,-177,76,164,70,3,-34,73,33
-189,-20,169,105,-179,75,164,69,2,-36,71,31
-193,-25,168,109,-180,72,163,70,0,-37,68,29
-194,-26,168,110,-181,71,164,70,-1,-38,64,27
-193,-23,170,108,-181,74,170,73,3,-38,63,28
-192,-21,171,107,-181,75,173,74,3,-39,61,29
-196,-25,171,111,-183,73,169,71,-1,-42,58,27
-197,-27,170,112,-183,72,166,71,-2,-42,60,26
-191,-25,166,108,-178,71,168,72,1,-40,65,27
-191,-26,165,109,-178,70,168,72,0,-40,65,26
-196,-32,164,114,-180,66,167,70,-2,-42,63,25
-195,-31,164,113,-179,67,166,69,-3,-43,62,25
-190,-26,164,108,-177,69,169,72,-1,-41,65,28
-190,-25,165,108,-177,70,168,71,-2,-41,65,28
-193,-27,166,110,-179,70,167,71,-3,-41,65,27
-190,-26,164,108,-177,69,167,71,-1,-41,64,27
-187,-21,166,104,-176,73,168,71,-1,-41,62,27
-187,-21,166,104,-176,73,168,71,0,-41,59,25
-189,-23,166,106,-177,72,168,71,0,-41,57,23
-190,-24,166,107,-178,71,169,71,1,-40,57,23
-192,-25,167,109,-179,71,169,72,0,-40,59,22
-194,-26,168,110,-181,71,168,72,0,-40,61,23
-192,-25,167,109,-179,71,167,71,-2,-40,63,24
-188,-23,165,106,-176,71,167,70,-2,-41,64,25
-188,-23,165,106,-176,71,168,71,-1,-40,65,26
-190,-24,166,107,-178,71,168,71,-2,-41,64,26
-193,-25,168,109,-180,72,168,70,-3,-43,61,24
-195,-26,169,111,-182,72,168,70,-3,-44,59,22
-196,-27,169,112,-182,71,169,70,-2,-42,60,22
-194,-26,168,110,-181,71,169,70,-3,-42,62,24
-192,-24,168,108,-180,72,167,70,-3,-42,64,25
-191,-24,167,108,-179,72,165,69,-2,-42,63,24
-191,-23,168,107,-179,73,166,71,-1,-40,64,23
-192,-22,170,107,-181,74,167,71,-1,-40,64,22
-193,-24,169,109,-181,73,166,70,-2,-40,66,21
-195,-26,169,111,-182,72,165,70,-2,-41,65,20
-195,-27,168,111,-181,71,167,74,0,-40,64,19
-193,-27,166,110,-179,70,171,78,4,-39,60,18
-193,-32,161,113,-177,65,178,87,10,-38,54,16
-195,-43,152,119,-173,55,181,97,15,-39,45,10
-196,-55,141,126,-168,43,188,110,24,-38,39,3
-191,-63,128,127,-159,33,199,126,36,-38,37,-5
"
		-188","
		-73","
		115","
		131","
		-151","
		21","
		211","
		143","
		47","
		-38","
		32","
		-14"
-192,-84,108,138,-150,12,218,157,58,-41,23,-21
-194,-86,108,140,-151,11,221,165,69,-42,19,-24
-188,-73,115,131,-151,21,220,169,83,-34,26,-17
-177,-51,126,114,-151,38,213,169,99,-17,40,-4
-167,-26,141,97,-154,58,198,162,116,6,59,14
-157,4,161,77,-159,83,177,149,132,35,85,38
-148,39,187,55,-167,113,151,134,148,69,121,68
-140,77,217,32,-178,147,128,118,162,107,159,102
-134,116,250,9,-192,183,107,98,175,147,201,138
-129,159,288,-15,-208,224,87,74,177,187,245,176
-124,207,331,-41,-227,269,66,35,148,216,291,216
-125,266,391,-70,-258,329,37,-38,64,229,336,261
-137,334,471,-98,-304,403,4,-147,-67,229,384,312
-156,393,549,-118,-352,471,-20,-259,-200,223,421,353
-169,430,599,-130,-384,515,-32,-329,-280,229,447,380
-174,448,622,-137,-398,535,-43,-361,-310,246,467,396
-176,446,622,-135,-399,534,-53,-380,-325,260,479,401
-181,422,603,-120,-392,513,-43,-381,-328,265,475,390
-187,381,568,-97,-377,475,-12,-362,-324,249,449,363
-193,336,529,-71,-361,433,24,-336,-329,200,405,326
-200,292,492,-46,-346,392,57,-311,-342,126,353,288
-210,245,455,-17,-332,350,88,-285,-355,38,293,246
-221,187,408,17,-314,298,113,-255,-361,-57,220,194
-229,123,352,53,-290,238,133,-220,-354,-141,150,141
-232,73,305,80,-268,189,137,-194,-339,-195,97,101
-235,42,277,97,-256,160,128,-184,-321,-209,66,74
-241,23,264,109,-252,144,115,-180,-299,-199,50,55
-247,10,257,119,-252,134,103,-172,-277,-184,41,41
-250,4,254,123,-252,129,91,-168,-261,-174,34,31
-247,-1,246,124,-246,123,83,-165,-247,-167,30,23
-240,-5,235,123,-237,115,87,-149,-226,-155,30,17
-229,-5,224,117,-226,110,97,-120,-196,-139,34,15
-222,-4,218,113,-220,107,104,-91,-165,-122,36,14
-221,-7,214,114,-217,104,112,-64,-137,-109,39,14
-221,-10,211,116,-216,101,121,-41,-112,-98,42,15
-217,-9,208,113,-212,100,131,-21,-91,-87,46,17
-212,-7,205,110,-208,99,139,0,-69,-75,52,19
-205,-5,200,105,-202,98,145,20,-51,-63,57,22
-198,-3,195,101,-196,96,152,37,-35,-52,61,26
-194,-2,192,98,-193,95,158,50,-23,-45,65,27
-193,-6,187,100,-190,91,161,58,-15,-41,65,26
-192,-11,181,102,-186,85,162,61,-10,-40,64,24
-191,-14,177,103,-184,82,165,65,-4,-39,63,23
-193,-16,177,105,-185,81,167,68,1,-39,62,23
-194,-19,175,107,-184,78,169,71,6,-37,62,22
-194,-22,172,108,-183,75,170,74,9,-36,61,21
-193,-22,171,108,-182,75,170,75,11,-36,61,20
-190,-21,169,106,-179,74,172,79,13,-33,63,22
-189,-19,170,104,-179,76,173,83,16,-30,63,23
-189,-20,169,105,-179,75,172,84,16,-28,63,22
-190,-21,169,106,-179,74,171,85,18,-27,65,23
-188,-20,168,104,-178,74,170,86,21,-25,66,23
-186,-18,168,102,-177,75,171,88,25,-24,66,24
-186,-19,167,103,-176,74,172,89,27,-24,66,23
-186,-21,165,104,-175,72,172,91,29,-24,64,21
-187,-22,165,105,-176,72,172,91,29,-25,62,17
-190,-23,167,107,-178,72,176,93,31,-22,63,17
-189,-22,167,106,-178,73,176,93,30,-21,64,16
-187,-20,167,104,-177,74,172,93,30,-19,65,17
-186,-20,166,103,-176,73,169,90,28,-19,66,18
-186,-20,166,103,-176,73,169,90,29,-17,67,20
-186,-20,166,103,-176,73,169,91,29,-17,66,22
-187,-23,164,105,-175,71,168,91,30,-19,64,24
-188,-25,163,107,-175,69,167,90,30,-22,64,25
-186,-23,163,105,-174,70,169,92,32,-23,66,24
-185,-20,165,103,-175,73,171,94,34,-22,68,25
-184,-19,165,102,-174,73,172,94,34,-22,67,25
-182,-18,164,100,-173,73,173,95,34,-21,66,24
-181,-18,163,100,-172,73,172,97,35,-19,66,24
-183,-18,165,101,-174,74,171,97,35,-16,67,25
-185,-19,166,102,-175,74,172,97,35,-15,67,24
-185,-20,165,103,-175,73,172,97,36,-15,67,23
-183,-20,163,102,-173,72,170,96,36,-16,67,23
-183,-22,161,103,-172,70,169,96,37,-15,68,24
-183,-21,162,102,-172,71,170,98,40,-15,68,24
-180,-17,163,99,-171,73,169,97,39,-15,66,23
-180,-17,163,99,-171,73,170,97,39,-15,65,22
-184,-20,164,102,-174,72,171,97,38,-15,66,22
-187,-23,164,105,-175,71,171,97,37,-15,67,22
-185,-21,164,103,-174,72,169,97,36,-15,68,22
-182,-18,164,100,-173,73,169,98,37,-15,70,24
-182,-16,166,99,-174,75,169,98,38,-13,72,26
-184,-17,167,101,-175,75,169,97,38,-14,71,26
-186,-20,166,103,-176,73,168,95,37,-17,68,24
-185,-21,164,103,-174,72,169,96,39,-17,68,23
-182,-19,163,101,-172,72,169,97,40,-15,69,24
-180,-18,162,99,-171,72,169,99,41,-13,70,26
-181,-19,162,100,-171,72,168,99,40,-13,69,25
-184,-20,164,102,-174,72,168,99,40,-12,68,24
-187,-21,166,104,-176,73,166,98,38,-12,67,22
-187,-21,166,104,-176,73,167,99,39,-10,67,22
-183,-20,163,102,-173,72,168,100,42,-8,68,23
-181,-18,163,100,-172,73,169,101,44,-7,71,25
-181,-17,164,99,-172,74,168,101,44,-9,72,26
-180,-17,163,99,-171,73,166,99,43,-12,69,23
-180,-17,163,99,-171,73,164,98,43,-11,69,23
-179,-15,164,97,-171,75,165,98,43,-9,71,25
-179,-12,167,96,-173,78,166,100,43,-7,71,26
-178,-11,167,95,-172,78,167,102,45,-5,71,26
-177,-11,166,94,-171,78,165,100,43,-4,71,25
-180,-14,166,97,-173,76,164,100,43,-4,73,26
-184,-19,165,102,-174,73,165,101,44,-4,72,25
-184,-19,165,102,-174,73,165,101,46,-6,72,25
-178,-15,163,97,-170,74,166,102,49,-6,74,28
-176,-15,161,96,-168,73,165,102,50,-6,75,29
-181,-19,162,100,-171,72,164,101,49,-5,73,28
-183,-19,164,101,-173,73,165,101,49,-4,72,27
-180,-15,165,98,-172,75,167,104,52,0,75,30
-177,-13,164,95,-170,76,166,105,53,3,75,30
-179,-15,164,97,-171,75,163,105,52,3,76,31
-181,-16,165,99,-173,75,162,105,52,3,76,31
-180,-13,167,97,-173,77,161,106,54,3,77,32
-178,-11,167,95,-172,78,161,106,55,4,77,30
-177,-12,165,95,-171,77,159,105,55,2,77,30
-176,-12,164,94,-170,76,158,105,55,1,79,30
-173,-11,162,92,-167,76,161,107,58,3,82,32
-174,-12,162,93,-168,75,162,109,59,5,84,33
-178,-15,163,97,-170,74,162,109,59,6,84,32
-178,-14,164,96,-171,75,162,110,61,10,86,33
-173,-10,163,92,-168,77,162,111,62,14,88,35
-171,-7,164,89,-167,79,160,112,62,14,87,36
-171,-7,164,89,-167,79,159,111,63,14,83,37
-171,-7,164,89,-167,79,157,110,64,15,81,38
-170,-7,163,89,-166,78,158,112,67,18,85,39
-171,-8,163,90,-167,78,157,113,70,18,88,37
-174,-11,163,93,-168,76,157,114,71,19,90,36
-172,-10,162,91,-167,76,157,116,72,20,90,37
-169,-6,163,88,-166,79,158,119,74,24,92,39
-170,-5,165,88,-167,80,158,120,76,26,93,39
-172,-6,166,89,-169,80,155,119,75,28,95,40
-169,-3,166,86,-167,82,154,119,76,29,96,41
-167,0,167,84,-167,84,153,121,79,31,98,42
-167,-2,165,85,-166,82,154,123,82,34,101,43
-165,-2,163,84,-164,81,154,125,85,37,103,45
-164,-1,163,83,-163,81,155,128,88,39,104,47
-164,-2,162,83,-163,80,154,128,89,39,103,46
-164,0,164,82,-164,82,153,129,90,41,105,48
-160,4,164,78,-162,84,154,132,93,46,108,51
-159,6,165,77,-162,86,154,133,93,50,110,51
-161,5,166,78,-163,86,152,133,93,52,112,52
-162,3,165,80,-163,84,150,132,93,55,116,54
-160,4,164,78,-162,84,147,132,95,58,121,58
-158,5,163,77,-160,84,147,132,97,61,125,61
-159,6,165,77,-162,86,148,133,98,63,125,61
-159,5,164,77,-161,85,145,133,99,62,124,61
-156,7,163,75,-159,85,144,133,101,63,127,63
-151,12,163,70,-157,88,145,136,103,68,131,66
-150,17,167,67,-158,92,146,137,105,72,134,69
-151,18,169,67,-160,94,145,136,104,74,136,70
-153,19,172,67,-162,96,142,135,103,76,139,71
-151,22,173,65,-162,98,142,135,103,78,143,74
-148,26,174,61,-161,100,139,133,102,78,145,75
-147,28,175,60,-161,102,137,132,102,81,148,77
-146,29,175,59,-160,102,136,132,103,84,151,79
-144,30,174,57,-159,102,135,132,104,86,153,81
-142,31,173,56,-157,102,137,133,107,90,155,83
-141,31,172,55,-156,102,137,133,106,92,156,84
-145,30,175,58,-160,103,137,132,104,94,157,86
-150,29,179,61,-164,104,134,128,101,94,158,85
-151,28,179,62,-165,104,132,126,99,96,161,86
-148,30,178,59,-163,104,129,123,96,96,162,87
-147,31,178,58,-162,105,127,120,94,96,164,89
-147,33,180,57,-163,107,127,120,94,98,167,92
-143,37,180,53,-161,109,129,120,94,98,168,92
-141,40,181,51,-161,111,132,118,93,99,167,91
-146,38,184,54,-165,111,132,117,92,97,166,91
-151,33,184,59,-167,109,131,114,88,93,163,88
-152,34,186,59,-169,110,133,113,86,91,160,86
-151,38,189,57,-170,114,135,111,84,90,159,84
-149,40,189,55,-169,115,136,110,82,89,158,84
-148,41,189,54,-168,115,136,109,79,86,157,83
-147,42,189,53,-168,116,136,107,77,82,155,81
-149,42,191,54,-170,117,136,103,72,76,150,79
-153,41,194,56,-173,118,138,100,69,71,146,77
-156,37,193,60,-174,115,139,96,65,64,140,73
-161,31,192,65,-176,112,141,94,62,59,134,69
-164,28,192,68,-178,110,144,93,58,53,128,66
-164,30,194,67,-179,112,146,93,55,49,125,63
-164,29,193,68,-178,111,148,93,53,45,123,61
-167,26,193,71,-180,110,148,90,48,38,118,57
-170,24,194,73,-182,109,149,89,45,34,114,55
-172,23,195,75,-183,109,150,88,42,30,111,52
-174,20,194,77,-184,107,150,85,39,24,106,50
-176,17,193,80,-184,105,151,83,36,19,101,47
-176,17,193,80,-184,105,152,82,34,15,98,46
-174,18,192,78,-183,105,154,82,33,13,96,45
-173,18,191,78,-182,105,155,83,30,10,94,44
-175,15,190,80,-182,103,158,82,27,6,91,41
-179,11,190,84,-184,101,159,80,25,1,88,39
-182,10,192,86,-187,101,158,79,22,-2,86,38
-181,11,192,85,-186,102,159,79,20,-6,83,37
-180,12,192,84,-186,102,161,80,20,-8,83,35
-182,8,190,87,-186,99,162,79,19,-11,81,33
-187,2,189,93,-188,96,163,78,17,-13,76,29
-191,-1,190,96,-190,95,166,79,17,-15,73,27
-191,0,191,96,-191,96,166,79,17,-17,70,26
-189,2,191,94,-190,97,167,81,17,-19,69,26
-187,1,188,93,-187,95,167,81,16,-20,69,26
-189,0,189,95,-189,95,166,79,13,-23,68,25
-192,-1,191,97,-191,95,165,76,10,-25,68,25
-190,-1,189,96,-189,94,165,77,10,-24,68,24
-187,0,187,94,-187,94,167,79,12,-23,68,24
-187,0,187,94,-187,94,167,80,13,-25,65,22
-188,-1,187,95,-187,93,169,81,14,-26,64,22
-187,-1,186,94,-186,93,169,80,13,-27,64,20
-186,-1,185,94,-185,92,170,80,14,-27,64,21
-185,0,185,93,-185,93,170,81,14,-27,63,20
-186,-1,185,94,-185,92,171,83,15,-26,62,20
-190,-3,187,97,-188,92,171,83,14,-26,63,19
-193,-4,189,99,-191,93,169,82,12,-27,63,19
-192,-4,188,98,-190,92,169,82,12,-27,64,20
-190,-4,186,97,-188,91,168,80,12,-28,64,20
-191,-4,187,98,-189,92,169,81,12,-29,64,20
-193,-5,188,99,-190,92,168,81,13,-30,64,19
-192,-7,185,100,-188,89,167,81,12,-31,62,16
-193,-9,184,101,-188,88,166,80,12,-31,60,14
-196,-11,185,104,-190,87,167,81,13,-31,59,14
-196,-11,185,104,-190,87,168,81,13,-30,57,13
-194,-9,185,102,-189,88,168,80,12,-29,57,13
-191,-5,186,98,-188,91,170,83,13,-26,61,17
-189,0,189,95,-189,95,171,84,14,-23,64,21
-188,1,189,94,-188,95,170,84,15,-22,65,21
-187,1,188,93,-187,95,170,84,16,-22,65,20
-186,0,186,93,-186,93,169,84,16,-24,64,19
-187,-3,184,95,-185,91,167,83,15,-28,62,17
-188,-3,185,96,-186,91,168,81,14,-29,62,18
-187,0,187,94,-187,94,170,83,15,-29,62,19
-189,-1,188,95,-188,94,171,84,15,-28,63,19
-191,-5,186,98,-188,91,170,84,14,-28,63,18
-189,-3,186,96,-187,92,169,84,13,-27,63,17
-187,1,188,93,-187,95,170,86,15,-25,63,19
-184,3,187,91,-185,95,168,86,16,-24,64,19
-183,1,184,91,-183,93,167,84,15,-24,64,19
-186,-1,185,94,-185,92,168,83,15,-26,63,19
-189,-1,188,95,-188,94,169,82,15,-28,63,18
-189,0,189,95,-189,95,169,82,15,-29,64,19
-188,0,188,94,-188,94,169,81,13,-30,66,21
-188,0,188,94,-188,94,168,81,12,-29,65,20
-189,0,189,95,-189,95,168,81,12,-27,64,19
-191,-1,190,96,-190,95,165,80,11,-27,63,17
-192,-3,189,98,-190,93,166,81,12,-27,64,16
-189,-2,187,96,-188,93,166,82,12,-27,64,14
-189,0,189,95,-189,95,167,83,13,-26,65,15
-192,0,192,96,-192,96,166,81,11,-28,64,15
-195,0,195,98,-195,98,165,80,11,-29,64,16
-192,0,192,96,-192,96,166,80,11,-29,61,17
-188,0,188,94,-188,94,166,80,11,-28,59,17
-189,0,189,95,-189,95,168,82,10,-28,63,20
-191,2,193,95,-192,98,168,81,9,-29,69,22
-190,3,193,94,-191,98,168,80,8,-31,70,22
-191,1,192,95,-191,97,166,80,6,-33,67,20
-194,-3,191,99,-192,94,164,79,5,-34,63,18
-190,0,190,95,-190,95,166,80,7,-32,64,19
-181,8,189,87,-185,99,167,81,8,-31,67,21
-181,8,189,87,-185,99,166,81,8,-32,66,21
-187,2,189,93,-188,96,165,78,5,-33,65,17
-190,0,190,95,-190,95,166,77,4,-32,65,16
-188,2,190,93,-189,96,167,78,4,-31,66,16
-187,1,188,93,-187,95,167,81,5,-30,64,15
-188,0,188,94,-188,94,166,80,4,-32,60,13
-189,-2,187,96,-188,93,165,79,3,-34,56,14
-189,-3,186,96,-187,92,164,77,1,-37,55,15
-192,-4,188,98,-190,92,163,75,1,-38,57,16
-192,-3,189,98,-190,93,164,75,1,-39,63,16
-191,-1,190,96,-190,95,164,74,0,-39,65,16
-192,0,192,96,-192,96,165,74,-1,-39,62,15
-191,-2,189,97,-190,94,166,75,-1,-40,59,13
-187,-1,186,94,-186,93,167,76,-1,-39,61,13
-184,1,185,92,-184,93,168,78,0,-35,64,16
-186,1,187,93,-186,94,167,77,-2,-36,62,17
-191,0,191,96,-191,96,167,76,-3,-38,63,18
-192,-1,191,97,-191,95,167,76,-3,-38,64,17
-190,-2,188,96,-189,93,165,75,-4,-39,63,15
-189,-3,186,96,-187,92,166,76,-3,-39,59,12
-188,-3,185,96,-186,91,165,75,-4,-40,58,10
-188,-4,184,96,-186,90,166,76,-2,-39,59,11
-187,-3,184,95,-185,91,165,74,-4,-41,56,10
-188,-3,185,96,-186,91,165,73,-6,-41,54,9
-189,-4,185,97,-187,91,166,74,-6,-40,55,10
-190,-5,185,98,-187,90,166,75,-6,-40,56,11
-190,-6,184,98,-187,89,166,75,-7,-41,56,12
-191,-6,185,99,-188,90,165,74,-7,-41,57,14
-191,-5,186,98,-188,91,164,73,-7,-42,57,12
-191,-7,184,99,-187,89,164,72,-7,-44,57,11
-190,-6,184,98,-187,89,164,72,-7,-45,58,12
-190,-4,186,97,-188,91,165,70,-7,-44,58,12
-192,-7,185,100,-188,89,166,68,-9,-45,56,10
-198,-13,185,106,-191,86,164,67,-12,-47,54,8
-199,-13,186,106,-192,87,163,66,-12,-47,54,9
-192,-5,187,99,-189,91,165,67,-10,-44,57,13
-185,0,185,93,-185,93,166,69,-9,-42,58,15
-185,-1,184,93,-184,92,166,69,-8,-42,58,15
-189,-3,186,96,-187,92,165,68,-8,-43,58,13
-190,-4,186,97,-188,91,165,67,-9,-46,55,10
-189,-7,182,98,-185,88,165,67,-10,-46,53,7
-189,-9,180,99,-184,86,165,67,-9,-46,52,7
-188,-7,181,98,-184,87,166,67,-9,-45,53,7
-190,-5,185,98,-187,90,167,67,-10,-45,53,8
-192,-6,186,99,-189,90,166,67,-11,-44,53,9
"
		-190","
		-6","
		184","
		98","
		-187","
		89","
		165","
		67","
		-11","
		-43","
		54","
		8"
-189,-5,184,97,-186,90,164,66,-11,-42,55,9
-190,-5,185,98,-187,90,165,67,-10,-43,57,11
-191,-4,187,98,-189,92,165,67,-10,-45,58,12
-188,-5,183,97,-185,89,164,65,-11,-48,55,9
-188,-9,179,99,-183,85,164,65,-11,-49,54,8
-191,-10,181,101,-186,86,166,66,-11,-48,53,8
-192,-10,182,101,-187,86,167,66,-11,-49,51,6
-190,-10,180,100,-185,85,166,66,-12,-48,50,6
-190,-8,182,99,-186,87,166,67,-11,-46,52,7
-189,-5,184,97,-186,90,167,68,-11,-44,55,8
-188,-3,185,96,-186,91,168,68,-10,-43,59,9
-189,-3,186,96,-187,92,167,66,-11,-44,61,11
-192,-4,188,98,-190,92,165,64,-14,-49,57,9
-193,-6,187,100,-190,91,166,64,-14,-51,52,5
-192,-6,186,99,-189,90,166,64,-14,-50,47,2
-193,-6,187,100,-190,91,166,65,-12,-48,47,4
-191,-5,186,98,-188,91,166,65,-12,-47,51,6
-190,-7,183,99,-186,88,165,64,-13,-47,55,6
-192,-9,183,101,-187,87,166,63,-13,-47,57,8
-191,-9,182,100,-186,87,166,62,-14,-47,56,9
-190,-7,183,99,-186,88,164,63,-14,-48,57,10
-191,-8,183,100,-187,88,164,63,-15,-48,58,11
-193,-10,183,102,-188,87,163,61,-15,-49,56,9
-194,-12,182,103,-188,85,162,61,-15,-50,55,7
-194,-13,181,104,-187,84,163,62,-14,-50,54,6
-194,-13,181,104,-187,84,166,64,-13,-50,53,5
-194,-11,183,103,-188,86,168,65,-13,-50,51,3
-192,-7,185,100,-188,89,169,66,-12,-49,51,4
-192,-5,187,99,-189,91,168,65,-12,-47,52,6
-194,-6,188,100,-191,91,165,63,-14,-47,51,6
-195,-6,189,101,-192,92,163,61,-15,-48,50,4
-195,-6,189,101,-192,92,163,61,-15,-49,51,4
-194,-6,188,100,-191,91,164,62,-15,-49,53,6
-192,-6,186,99,-189,90,167,64,-13,-47,55,7
-190,-6,184,98,-187,89,167,64,-13,-47,54,6
-190,-9,181,100,-185,86,169,65,-12,-49,53,7
-191,-11,180,101,-185,85,169,65,-13,-50,53,7
-193,-10,183,102,-188,87,167,64,-15,-50,53,6
-194,-10,184,102,-189,87,167,65,-14,-48,53,6
-191,-10,181,101,-186,86,168,65,-13,-47,52,5
-188,-6,182,97,-185,88,167,64,-14,-47,52,3
-188,-3,185,96,-186,91,167,63,-13,-47,53,4
-187,-4,183,96,-185,90,167,63,-13,-47,53,5
-187,-4,183,96,-185,90,166,63,-14,-49,51,3
-187,-4,183,96,-185,90,166,63,-15,-51,50,2
-188,-3,185,96,-186,91,166,63,-15,-52,51,4
-189,-5,184,97,-186,90,166,63,-14,-51,52,5
-191,-8,183,100,-187,88,166,64,-14,-49,51,5
-193,-10,183,102,-188,87,168,65,-15,-48,50,4
-195,-11,184,103,-189,87,169,65,-15,-47,51,4
-196,-10,186,103,-191,88,169,65,-16,-48,52,4
-194,-7,187,101,-190,90,167,66,-15,-48,53,4
-188,-5,183,97,-185,89,164,64,-15,-50,52,2
-187,-7,180,97,-183,87,163,64,-15,-50,53,1
-189,-8,181,99,-185,87,164,64,-15,-50,54,1
-191,-9,182,100,-186,87,165,64,-15,-49,55,3
-192,-10,182,101,-187,86,167,65,-15,-49,55,4
-193,-11,182,102,-187,86,168,66,-16,-49,54,4
-194,-11,183,103,-188,86,168,66,-17,-49,51,5
-195,-11,184,103,-189,87,166,64,-19,-50,46,4
-194,-12,182,103,-188,85,164,63,-19,-51,46,4
-190,-10,180,100,-185,85,163,63,-19,-50,52,5
-189,-7,182,98,-185,88,163,63,-17,-48,57,7
-190,-7,183,99,-186,88,164,63,-18,-50,55,5
-191,-9,182,100,-186,87,166,64,-18,-51,50,3
-190,-8,182,99,-186,87,167,66,-15,-50,51,3
-188,-4,184,96,-186,90,167,65,-15,-48,53,4
-189,-3,186,96,-187,92,166,66,-15,-48,51,4
-192,-8,184,100,-188,88,165,65,-17,-50,48,2
-193,-10,183,102,-188,87,164,63,-19,-52,50,2
-193,-7,186,100,-189,90,165,63,-19,-51,54,5
-190,-3,187,97,-188,92,168,63,-17,-49,55,7
-187,-1,186,94,-186,93,167,62,-17,-50,54,6
-188,-3,185,96,-186,91,165,62,-17,-52,54,5
-195,-8,187,102,-191,90,165,62,-18,-54,51,4
-199,-12,187,106,-193,88,164,60,-19,-56,47,0
-197,-11,186,104,-191,88,164,62,-18,-54,48,1
-189,-2,187,96,-188,93,165,64,-16,-50,52,4
-183,2,185,91,-184,94,167,66,-15,-47,55,7
-188,-1,187,95,-187,93,166,63,-18,-48,53,5
-194,-7,187,101,-190,90,163,62,-21,-51,49,2
-193,-6,187,100,-190,91,165,65,-19,-51,49,1
-184,1,185,92,-184,93,168,68,-14,-48,53,4
-180,3,183,89,-181,93,169,69,-12,-48,54,5
-182,-2,180,92,-181,89,168,68,-13,-49,53,4
-184,-3,181,94,-182,89,168,69,-12,-49,52,5
-184,0,184,92,-184,92,169,70,-11,-48,52,7
-183,2,185,91,-184,94,170,71,-11,-47,52,6
-183,1,184,91,-183,93,169,71,-12,-47,50,5
-184,-1,183,93,-183,91,168,70,-13,-48,49,4
-187,-5,182,96,-184,89,168,69,-12,-46,51,3
-186,-6,180,96,-183,87,166,69,-10,-43,53,4
-182,-3,179,93,-180,88,167,72,-7,-40,56,8
-178,0,178,89,-178,89,168,75,-3,-38,59,12
-178,2,180,88,-179,91,166,74,-4,-40,60,14
-178,4,182,87,-180,93,164,73,-4,-40,61,15
-177,7,184,85,-180,96,161,73,-4,-40,60,14
-175,9,184,83,-179,97,160,72,-5,-40,58,13
-175,10,185,83,-180,98,159,70,-7,-41,59,13
-176,8,184,84,-180,96,158,67,-9,-41,60,12
-180,3,183,89,-181,93,156,64,-12,-42,60,9
-186,-1,185,94,-185,92,156,62,-15,-45,59,7
-190,-2,188,96,-189,93,161,62,-15,-46,56,7
-192,-2,190,97,-191,94,162,62,-16,-48,53,5
-193,-5,188,99,-190,92,160,61,-17,-50,50,4
-189,-7,182,98,-185,88,157,59,-18,-50,47,4
-182,-3,179,93,-180,88,158,61,-16,-47,48,7
-177,-1,176,89,-176,88,163,65,-14,-44,53,10
-179,-1,178,90,-178,89,167,68,-12,-42,60,12
-181,-1,180,91,-180,90,167,66,-14,-46,59,10
-181,-1,180,91,-180,90,165,64,-16,-49,54,7
-180,0,180,90,-180,90,163,64,-16,-48,54,7
-181,0,181,91,-181,91,163,64,-15,-46,56,8
-182,-2,180,92,-181,89,164,64,-15,-46,56,8
-182,-4,178,93,-180,87,164,64,-15,-46,55,8
-182,-4,178,93,-180,87,164,64,-15,-46,56,9
-182,-5,177,94,-179,86,165,63,-16,-46,56,10
-184,-4,180,94,-182,88,166,63,-16,-46,56,10
-186,-3,183,95,-184,90,167,64,-15,-45,57,11
-190,-5,185,98,-187,90,165,63,-17,-46,54,8
-195,-10,185,103,-190,88,163,61,-19,-49,50,4
-194,-12,182,103,-188,85,165,62,-19,-50,48,3
-190,-9,181,100,-185,86,168,65,-18,-51,48,2
-190,-9,181,100,-185,86,168,65,-19,-52,47,-1
-192,-11,181,102,-186,85,168,64,-21,-55,45,-3
-193,-13,180,103,-186,84,170,64,-20,-56,45,-1
-193,-15,178,104,-185,82,169,63,-21,-58,46,-1
-192,-16,176,104,-184,80,168,62,-22,-58,47,-2
-189,-12,177,101,-183,83,169,64,-20,-54,50,0
-188,-9,179,99,-183,85,171,64,-20,-53,50,2
-190,-11,179,101,-184,84,171,63,-21,-54,49,2
-187,-12,175,100,-181,82,168,62,-22,-55,47,0
-185,-11,174,98,-179,82,166,63,-20,-53,48,-1
-189,-11,178,100,-183,84,167,63,-20,-54,47,-2
-194,-13,181,104,-187,84,169,64,-20,-56,47,-1
-193,-13,180,103,-186,84,169,63,-21,-57,48,-1
-193,-13,180,103,-186,84,169,62,-21,-56,50,-1
-196,-15,181,106,-188,83,169,61,-22,-56,50,-1
-199,-17,182,108,-190,83,169,62,-22,-56,49,-2
-198,-16,182,107,-190,83,169,61,-23,-56,47,-2
-195,-12,183,104,-189,86,169,61,-23,-55,45,0
-191,-9,182,100,-186,87,168,62,-22,-55,42,1
-189,-9,180,99,-184,86,167,63,-21,-54,44,-1
-190,-11,179,101,-184,84,168,63,-21,-55,48,-1
-189,-11,178,100,-183,84,168,63,-21,-54,52,3
-188,-10,178,99,-183,84,168,63,-19,-52,53,5
-191,-12,179,102,-185,84,167,62,-20,-54,51,3
-193,-14,179,104,-186,83,168,63,-22,-56,49,3
-194,-13,181,104,-187,84,169,63,-22,-55,49,4
-192,-8,184,100,-188,88,168,63,-21,-54,50,3
-189,-5,184,97,-186,90,167,63,-20,-52,50,3
-190,-6,184,98,-187,89,167,64,-19,-51,49,3
-194,-10,184,102,-189,87,169,66,-18,-50,49,2
-196,-14,182,105,-189,84,169,66,-18,-50,48,-1
-198,-18,180,108,-189,81,170,68,-18,-51,45,-3
-197,-22,175,110,-186,77,173,73,-13,-52,42,-8
-195,-24,171,110,-183,74,180,84,-5,-52,37,-12
-195,-33,162,114,-178,65,188,96,4,-50,33,-17
-197,-45,152,121,-174,54,196,108,13,-50,28,-22
-192,-51,141,122,-166,45,206,124,25,-48,25,-27
-188,-56,132,122,-160,38,214,137,37,-46,21,-30
-191,-60,131,126,-161,36,217,144,45,-46,18,-33
-191,-53,138,122,-164,43,216,147,54,-43,17,-32
-185,-35,150,110,-167,58,211,146,65,-34,25,-24
-180,-15,165,98,-172,75,199,138,75,-18,40,-10
-176,10,186,83,-181,98,181,126,88,6,63,10
-165,47,212,59,-188,130,158,111,101,37,94,37
-152,88,240,32,-196,164,137,96,114,70,130,69
-143,126,269,9,-206,198,118,77,121,103,169,101
-140,164,304,-12,-222,234,97,51,114,134,207,133
-139,205,344,-33,-241,275,74,15,80,154,242,165
-141,252,393,-55,-267,323,49,-37,10,159,280,203
-150,309,459,-79,-304,384,20,-117,-99,148,322,245
-164,366,530,-101,-347,448,-6,-207,-221,127,355,283
-176,405,581,-114,-378,493,-19,-268,-306,115,377,308
-182,419,601,-118,-391,510,-26,-292,-339,116,393,318
-186,410,596,-112,-391,503,-31,-298,-348,123,404,320
-188,381,569,-96,-378,475,-26,-294,-349,123,403,309
-187,339,526,-76,-356,433,0,-275,-342,112,387,286
-188,290,478,-51,-333,384,33,-249,-336,81,352,254
-193,243,436,-25,-314,340,67,-224,-339,28,308,222
-199,203,402,-2,-300,303,94,-203,-347,-36,258,193
-205,157,362,24,-283,260,116,-181,-350,-100,200,157
-211,105,316,53,-263,211,133,-155,-343,-156,140,114
-217,65,282,76,-249,174,140,-134,-331,-197,90,79
-221,46,267,88,-244,157,134,-130,-320,-218,57,56
-226,38,264,94,-245,151,123,-133,-308,-217,35,38
-230,33,263,99,-246,148,113,-134,-293,-206,24,24
-235,24,259,106,-247,142,105,-133,-277,-196,19,13
-237,15,252,111,-244,134,100,-131,-264,-187,14,2
-233,7,240,113,-236,124,101,-121,-246,-177,10,-8
-227,0,227,114,-227,114,107,-103,-221,-165,9,-14
-224,-6,218,115,-221,106,115,-79,-192,-149,13,-15
-221,-6,215,114,-218,105,123,-55,-162,-133,19,-13
-217,-3,214,110,-215,106,133,-33,-136,-117,25,-11
-213,0,213,107,-213,107,140,-14,-114,-103,29,-8
-207,4,211,102,-209,108,144,1,-95,-92,33,-5
-200,7,207,97,-203,107,148,17,-79,-81,38,-1
-197,6,203,96,-200,105,151,32,-64,-71,43,1
-196,6,202,95,-199,104,155,43,-52,-61,50,3
-196,6,202,95,-199,104,157,49,-45,-55,53,5
-196,1,197,98,-196,99,157,51,-39,-54,52,5
-196,-3,193,100,-194,95,157,52,-34,-55,49,1
-195,-8,187,102,-191,90,161,55,-30,-53,50,-1
-192,-10,182,101,-187,86,165,59,-25,-51,50,0
-190,-10,180,100,-185,85,167,61,-22,-49,48,0
-190,-7,183,99,-186,88,169,64,-18,-47,48,0
-188,-4,184,96,-186,90,169,68,-15,-42,51,1
-186,-4,182,95,-184,89,167,69,-14,-40,51,2
-190,-8,182,99,-186,87,166,69,-15,-40,51,3
-193,-10,183,102,-188,87,165,68,-15,-41,50,2
-189,-7,182,98,-185,88,165,70,-11,-39,52,2
-186,-7,179,97,-182,86,166,71,-8,-38,54,3
-185,-8,177,97,-181,85,166,72,-5,-36,55,4
-181,-6,175,94,-178,85,167,74,-2,-34,57,5
-180,-4,176,92,-178,86,170,76,0,-34,57,4
-185,-6,179,96,-182,87,172,77,-1,-35,55,2
-187,-9,178,98,-182,85,172,78,-2,-34,53,0
-186,-8,178,97,-182,85,170,79,-3,-33,51,-2
-186,-5,181,96,-183,88,169,80,-3,-31,53,-1
-186,-1,185,94,-185,92,168,81,-2,-30,57,3
-185,0,185,93,-185,93,166,80,-1,-29,60,4
-187,-4,183,96,-185,90,164,78,-1,-31,59,2
-191,-11,180,101,-185,85,164,77,-1,-32,56,-1
-191,-16,175,104,-183,80,166,78,1,-32,55,-1
-186,-16,170,101,-178,77,169,80,2,-31,56,1
-180,-11,169,96,-174,79,171,82,4,-29,59,4
-178,-5,173,92,-175,84,171,84,6,-26,62,6
-182,-5,177,94,-179,86,169,83,5,-25,63,6
-185,-6,179,96,-182,87,169,83,4,-24,63,6
-187,-5,182,96,-184,89,170,83,5,-24,63,6
-187,-6,181,97,-184,88,168,81,5,-26,58,3
-184,-6,178,95,-181,86,166,81,6,-26,52,2
-182,-6,176,94,-179,85,166,81,8,-25,52,2
-181,-8,173,95,-177,83,168,82,9,-25,58,3
-180,-9,171,95,-175,81,168,82,8,-28,63,3
-180,-7,173,94,-176,83,169,82,6,-28,62,4
-182,-5,177,94,-179,86,171,82,5,-27,61,5
-184,-5,179,95,-181,87,169,81,3,-26,61,4
-185,-6,179,96,-182,87,165,80,2,-25,61,5
-182,-4,178,93,-180,87,165,81,4,-23,63,8
-179,-1,178,90,-178,89,167,82,5,-21,64,8
-179,-2,177,91,-178,88,166,82,5,-22,64,7
-180,-6,174,93,-177,84,166,82,6,-23,65,7
-181,-10,171,96,-176,81,166,81,6,-26,64,6
-185,-13,172,99,-178,80,167,81,6,-27,62,5
-189,-15,174,102,-181,80,167,80,4,-28,59,4
-187,-13,174,100,-180,81,169,81,4,-25,60,4
-179,-8,171,94,-175,82,170,83,7,-21,63,7
-176,-5,171,91,-173,83,167,84,7,-19,65,9
-180,-6,174,93,-177,84,164,84,6,-19,67,9
-181,-5,176,93,-178,86,165,83,6,-20,66,9
-179,-3,176,91,-177,87,166,82,7,-20,64,8
-180,-5,175,93,-177,85,165,80,6,-22,62,7
-184,-9,175,97,-179,83,164,80,7,-24,60,5
-181,-7,174,94,-177,84,164,80,8,-24,58,3
-178,-3,175,91,-176,86,168,83,9,-20,60,5
-179,-3,176,91,-177,87,168,85,9,-18,62,7
-182,-5,177,94,-179,86,168,86,9,-17,62,7
-185,-6,179,96,-182,87,166,85,7,-16,62,6
-185,-5,180,95,-182,88,164,83,6,-16,64,7
-179,0,179,90,-179,90,162,83,7,-15,66,9
-174,3,177,86,-175,90,164,85,11,-13,70,12
-177,-2,175,90,-176,87,164,85,12,-13,71,11
-183,-11,172,97,-177,81,163,84,12,-14,69,9
-183,-14,169,99,-176,78,163,83,11,-14,67,7
-181,-13,168,97,-174,78,165,84,11,-12,67,9
-178,-10,168,94,-173,79,165,87,13,-10,66,11
-174,-6,168,90,-171,81,164,89,14,-7,65,14
-174,-1,173,88,-173,86,161,87,12,-7,67,13
-176,1,177,88,-176,89,161,85,10,-10,71,12
-176,2,178,87,-177,90,161,85,12,-11,73,12
-175,0,175,88,-175,88,161,85,15,-10,74,13
-176,-3,173,90,-174,85,161,87,17,-8,74,14
-177,-5,172,91,-174,84,162,88,18,-8,72,13
-176,-6,170,91,-173,82,163,89,19,-8,69,12
-175,-5,170,90,-172,83,164,90,21,-6,69,11
-175,-3,172,89,-173,85,163,90,19,-4,70,10
-176,-3,173,90,-174,85,163,92,19,-1,71,11
-177,-4,173,91,-175,85,162,94,22,3,74,13
-177,-4,173,91,-175,85,161,95,24,6,77,15
-174,-2,172,88,-173,85,158,94,25,6,80,17
-175,-2,173,89,-174,86,157,93,26,6,82,19
-178,-5,173,92,-175,84,158,91,26,5,82,18
-177,-6,171,92,-174,83,160,93,28,7,82,18
-173,-1,172,87,-172,86,160,95,31,11,83,19
-172,0,172,86,-172,86,159,96,32,12,84,20
-174,-2,172,88,-173,85,159,96,30,12,82,17
-176,-6,170,91,-173,82,159,98,32,14,83,18
-177,-7,170,92,-173,82,157,98,33,17,87,21
-179,-6,173,93,-176,84,156,98,34,18,90,24
-177,-2,175,90,-176,87,156,99,37,19,92,25
-172,2,174,85,-173,88,157,101,39,21,94,25
-167,6,173,81,-170,90,156,102,41,24,96,26
-166,9,175,79,-170,92,155,104,45,28,98,29
-166,10,176,78,-171,93,156,106,49,32,100,31
-167,7,174,80,-170,91,157,108,50,36,102,31
-168,4,172,82,-170,88,156,109,50,38,101,31
-168,3,171,83,-169,87,154,109,51,42,104,32
"
		-165","
		4","
		169","
		81","
		-167","
		87","
		152","
		109","
		51","
		45","
		107","
		33"
-164,6,170,79,-167,88,151,109,51,48,112,36
-164,7,171,79,-167,89,151,110,52,50,118,41
-161,9,170,76,-165,90,150,110,54,52,124,44
-161,9,170,76,-165,90,149,109,55,53,128,45
-168,4,172,82,-170,88,147,107,54,53,127,44
-171,1,172,85,-171,87,147,107,56,52,125,44
-164,8,172,78,-168,90,149,109,56,55,124,46
-158,14,172,72,-165,93,149,112,57,60,125,49
-158,15,173,72,-165,94,147,112,57,64,129,52
-156,17,173,70,-164,95,145,112,58,68,138,55
-153,20,173,67,-163,97,144,112,59,72,146,59
-155,19,174,68,-164,97,145,111,60,73,148,62
-157,17,174,70,-165,96,145,110,60,73,147,62
-152,20,172,66,-162,96,145,111,61,76,147,62
-150,21,171,65,-160,96,143,111,62,78,148,59
-155,17,172,69,-163,95,142,108,60,77,147,58
-159,15,174,72,-166,95,141,107,58,78,149,59
-155,20,175,68,-165,98,141,109,60,82,155,63
-149,27,176,61,-162,102,141,110,60,85,158,67
-149,28,177,61,-163,103,140,109,58,87,161,70
-155,24,179,66,-167,102,138,105,54,86,160,69
-160,20,180,70,-170,100,136,102,53,85,159,68
-157,23,180,67,-168,102,137,101,53,85,160,68
-150,30,180,60,-165,105,139,101,54,86,161,69
-150,30,180,60,-165,105,140,99,52,84,159,68
-155,27,182,64,-168,105,139,96,48,80,154,64
-157,26,183,66,-170,105,139,94,45,77,152,62
-156,29,185,64,-170,107,140,93,42,75,151,62
-156,31,187,63,-171,109,141,91,41,72,149,61
-158,31,189,64,-173,110,140,89,37,68,146,61
-160,29,189,66,-174,109,139,87,33,64,142,59
-161,27,188,67,-174,108,140,85,31,59,138,56
-164,23,187,71,-175,105,142,84,29,55,135,55
-170,17,187,77,-178,102,144,82,26,50,129,51
-173,14,187,80,-180,101,145,80,23,43,122,46
-172,15,187,79,-179,101,147,80,21,38,117,43
-173,15,188,79,-180,102,148,79,17,34,113,40
-173,16,189,79,-181,103,148,77,12,28,109,37
-172,19,191,77,-181,105,149,76,9,24,109,37
-172,23,195,75,-183,109,150,74,5,20,107,36
-175,23,198,76,-186,111,150,72,1,15,103,33
-179,18,197,81,-188,108,149,70,-3,9,97,28
-183,10,193,87,-188,102,150,69,-5,5,92,24
-185,7,192,89,-188,100,153,69,-6,1,86,20
-185,9,194,88,-189,102,155,68,-7,-3,81,18
-184,9,193,88,-188,101,157,68,-9,-5,80,17
-183,6,189,89,-186,98,158,68,-11,-9,79,15
-183,4,187,90,-185,96,158,68,-15,-14,77,12
-185,5,190,90,-187,98,160,69,-16,-16,76,12
-186,6,192,90,-189,99,160,68,-19,-18,74,11
-186,6,192,90,-189,99,158,67,-20,-21,68,10
-186,5,191,91,-188,98,158,66,-21,-26,62,9
-187,3,190,92,-188,97,159,65,-22,-30,61,9
-189,0,189,95,-189,95,160,64,-24,-34,62,6
-191,-5,186,98,-188,91,161,64,-25,-38,61,4
-192,-7,185,100,-188,89,163,64,-26,-39,59,3
-193,-8,185,101,-189,89,164,64,-27,-39,57,3
-193,-7,186,100,-189,90,162,63,-30,-43,54,-1
-192,-7,185,100,-188,89,163,64,-31,-43,54,-1
-193,-7,186,100,-189,90,163,63,-32,-44,54,-2
-193,-6,187,100,-190,91,162,63,-32,-44,54,-3
-191,-4,187,98,-189,92,163,65,-30,-42,56,-2
-190,-4,186,97,-188,91,163,64,-29,-42,54,-2
-192,-8,184,100,-188,88,162,63,-30,-44,51,-3
-198,-12,186,105,-192,87,163,62,-32,-47,49,-3
-200,-14,186,107,-193,86,164,61,-34,-50,46,-5
-195,-12,183,104,-189,86,165,63,-33,-49,46,-5
-193,-11,182,102,-187,86,166,65,-31,-47,48,-4
-198,-12,186,105,-192,87,167,64,-32,-48,47,-5
-200,-13,187,107,-193,87,168,64,-33,-49,47,-6
-195,-9,186,102,-190,89,165,64,-32,-47,49,-5
-194,-8,186,101,-190,89,163,63,-31,-46,51,-5
-196,-11,185,104,-190,87,162,63,-31,-48,50,-4
-195,-12,183,104,-189,86,162,63,-30,-49,49,-5
-194,-10,184,102,-189,87,164,64,-29,-50,47,-7
-196,-10,186,103,-191,88,166,65,-30,-49,44,-9
-194,-10,184,102,-189,87,168,68,-30,-46,44,-9
-189,-7,182,98,-185,88,168,68,-28,-44,46,-8
-188,-6,182,97,-185,88,166,68,-27,-44,48,-6
-191,-9,182,100,-186,87,165,66,-29,-45,49,-4
-194,-10,184,102,-189,87,164,66,-30,-45,51,-3
-192,-10,182,101,-187,86,163,66,-30,-46,51,-4
-190,-8,182,99,-186,87,164,66,-28,-45,52,-3
-190,-5,185,98,-187,90,163,65,-28,-45,52,-3
-193,-5,188,99,-190,92,162,65,-29,-47,50,-5
-195,-7,188,101,-191,91,161,65,-30,-49,48,-7
-193,-9,184,101,-188,88,162,66,-29,-47,47,-8
-191,-9,182,100,-186,87,162,66,-28,-45,46,-8
-192,-7,185,100,-188,89,162,66,-27,-42,47,-5
-195,-4,191,100,-193,94,161,65,-28,-44,47,-2
-197,-3,194,100,-195,96,159,62,-31,-48,47,-5
-194,-1,193,98,-193,96,160,63,-31,-48,51,-6
-189,0,189,95,-189,95,162,66,-25,-43,54,-5
-186,-1,185,94,-185,92,162,67,-24,-42,52,-6
-189,-6,183,98,-186,89,163,67,-24,-43,51,-5
-191,-8,183,100,-187,88,163,66,-25,-43,52,-4
-192,-6,186,99,-189,90,164,66,-26,-43,52,-3
-194,-6,188,100,-191,91,165,66,-26,-43,50,-4
-195,-5,190,100,-192,93,166,67,-26,-42,50,-5
-191,0,191,96,-191,96,166,68,-26,-41,51,-6
-188,2,190,93,-189,96,164,69,-25,-39,51,-5
-190,-1,189,96,-189,94,160,66,-26,-40,49,-5
-192,-3,189,98,-190,93,157,66,-24,-40,49,-5
-191,-2,189,97,-190,94,158,64,-25,-41,47,-6
-192,-1,191,97,-191,95,161,64,-25,-42,48,-5
-193,-1,192,97,-192,96,162,65,-25,-43,49,-4
-195,-4,191,100,-193,94,161,66,-27,-43,50,-4
-198,-7,191,103,-194,92,158,64,-29,-44,49,-5
-195,-4,191,100,-193,94,158,65,-28,-41,51,-3
-187,4,191,92,-189,98,160,68,-25,-38,53,0
-185,8,193,89,-189,101,160,67,-25,-41,52,0
-191,4,195,94,-193,100,160,62,-30,-46,49,-3
-196,-3,193,100,-194,95,160,61,-32,-47,46,-5
-197,-8,189,103,-193,91,161,62,-30,-44,48,-5
-198,-9,189,104,-193,90,162,63,-29,-43,50,-4
-197,-5,192,101,-194,94,160,62,-30,-44,50,-5
-195,0,195,98,-195,98,160,62,-31,-44,50,-4
-194,1,195,97,-194,98,161,63,-31,-45,49,-3
-194,1,195,97,-194,98,160,63,-32,-46,49,-4
-192,0,192,96,-192,96,161,64,-31,-45,51,-2
-189,0,189,95,-189,95,161,65,-30,-44,53,0
-189,1,190,94,-189,96,159,63,-31,-44,51,0
-191,0,191,96,-191,96,158,63,-32,-46,49,-2
-193,0,193,97,-193,97,159,61,-33,-49,46,-4
-194,-1,193,98,-193,96,160,60,-34,-50,44,-6
-194,-1,193,98,-193,96,160,60,-35,-49,45,-5
-194,-2,192,98,-193,95,160,60,-36,-49,45,-5
-196,-5,191,101,-193,93,160,60,-37,-50,45,-6
-197,-7,190,102,-193,92,160,60,-37,-50,45,-7
-196,-2,194,99,-195,96,160,61,-38,-50,46,-6
-191,4,195,94,-193,100,161,62,-37,-48,48,-5
-187,8,195,90,-191,102,161,61,-36,-46,49,-5
-187,4,191,92,-189,98,162,62,-34,-45,50,-3
-190,0,190,95,-190,95,161,59,-38,-48,48,-4
-194,-1,193,98,-193,96,162,58,-40,-51,45,-5
-194,-2,192,98,-193,95,161,59,-40,-54,42,-8
-191,-4,187,98,-189,92,160,61,-39,-54,40,-9
-190,-2,188,96,-189,93,161,62,-39,-53,41,-9
-193,0,193,97,-193,97,161,60,-40,-52,43,-7
-196,0,196,98,-196,98,161,59,-42,-54,43,-7
-196,-1,195,99,-195,97,159,57,-44,-56,42,-7
-194,-3,191,99,-192,94,158,58,-43,-56,42,-6
-194,-3,191,99,-192,94,158,58,-42,-55,42,-6
-193,-3,190,98,-191,94,159,59,-41,-54,43,-6
-191,-2,189,97,-190,94,161,59,-39,-54,43,-6
-191,-1,190,96,-190,95,161,60,-38,-53,44,-5
-193,-3,190,98,-191,94,161,59,-40,-55,43,-7
-196,-7,189,102,-192,91,161,59,-42,-57,41,-10
-195,-7,188,101,-191,91,160,59,-42,-57,40,-12
-194,-6,188,100,-191,91,160,60,-42,-56,42,-11
-195,-5,190,100,-192,93,161,59,-43,-56,42,-9
-198,-5,193,102,-195,94,161,57,-44,-56,40,-9
-199,-6,193,103,-196,94,161,57,-44,-56,38,-9
-196,-7,189,102,-192,91,162,59,-43,-56,35,-7
-190,-3,187,97,-188,92,161,60,-41,-56,35,-5
-187,0,187,94,-187,94,159,58,-41,-55,41,-5
-190,-1,189,96,-189,94,158,57,-43,-55,45,-5
-195,-4,191,100,-193,94,159,57,-45,-55,42,-6
-198,-7,191,103,-194,92,158,58,-45,-56,38,-8
-197,-8,189,103,-193,91,158,58,-46,-57,37,-9
-196,-6,190,101,-193,92,160,58,-47,-59,38,-8
-196,-6,190,101,-193,92,159,57,-48,-61,38,-10
-198,-8,190,103,-194,91,157,55,-46,-61,37,-12
-193,-4,189,99,-191,93,159,56,-44,-59,38,-12
-188,0,188,94,-188,94,163,59,-41,-57,40,-8
-190,-1,189,96,-189,94,165,60,-41,-57,40,-7
-195,-9,186,102,-190,89,163,58,-44,-59,39,-8
-196,-12,184,104,-190,86,160,57,-46,-59,38,-10
-192,-7,185,100,-188,89,160,59,-44,-58,40,-8
-190,-4,186,97,-188,91,160,59,-44,-57,40,-7
-194,-7,187,101,-190,90,160,58,-45,-56,40,-6
-195,-8,187,102,-191,90,159,55,-47,-58,39,-8
-192,-3,189,98,-190,93,159,56,-45,-57,41,-8
-190,0,190,95,-190,95,158,56,-45,-57,40,-8
-193,-1,192,97,-192,96,158,56,-46,-60,39,-9
-195,-5,190,100,-192,93,159,56,-46,-62,37,-11
-197,-8,189,103,-193,91,160,56,-47,-63,36,-12
-199,-10,189,105,-194,90,160,55,-47,-64,35,-12
-197,-6,191,102,-194,93,162,56,-47,-63,36,-10
-191,0,191,96,-191,96,161,57,-47,-61,38,-9
-191,-1,190,96,-190,95,159,58,-46,-60,37,-10
-194,-5,189,100,-191,92,159,56,-46,-60,34,-12
-194,-5,189,100,-191,92,162,58,-44,-59,36,-11
-192,-4,188,98,-190,92,162,58,-43,-59,36,-10
-196,-8,188,102,-192,90,161,57,-44,-60,36,-10
-199,-11,188,105,-193,89,163,56,-45,-61,34,-10
-196,-8,188,102,-192,90,164,57,-45,-60,35,-9
-192,-3,189,98,-190,93,163,57,-46,-60,36,-8
-192,-3,189,98,-190,93,161,57,-47,-61,36,-9
-194,-5,189,100,-191,92,159,57,-47,-62,36,-10
-195,-5,190,100,-192,93,158,56,-47,-62,37,-10
-196,-6,190,101,-193,92,159,56,-46,-60,38,-10
-198,-9,189,104,-193,90,160,57,-44,-60,38,-11
-198,-11,187,105,-192,88,161,57,-43,-61,37,-11
-197,-9,188,103,-192,90,161,57,-43,-60,36,-10
-199,-10,189,105,-194,90,161,57,-44,-60,32,-10
-200,-11,189,106,-194,89,160,56,-46,-61,27,-10
-196,-7,189,102,-192,91,160,57,-46,-59,28,-10
-190,-2,188,96,-189,93,163,60,-43,-56,35,-8
-189,-1,188,95,-188,94,162,60,-43,-58,39,-8
-193,-3,190,98,-191,94,162,59,-45,-61,37,-8
-197,-7,190,102,-193,92,162,57,-46,-63,33,-10
-198,-10,188,104,-193,89,161,56,-46,-63,32,-12
-196,-10,186,103,-191,88,160,56,-45,-61,32,-12
-194,-9,185,102,-189,88,160,58,-44,-60,34,-10
-195,-7,188,101,-191,91,161,57,-45,-60,34,-11
-196,-7,189,102,-192,91,160,56,-47,-60,34,-11
-197,-7,190,102,-193,92,160,56,-48,-59,35,-11
-197,-6,191,102,-194,93,160,56,-48,-59,33,-11
-196,-4,192,100,-194,94,161,57,-47,-59,32,-11
-195,-5,190,100,-192,93,162,59,-46,-58,34,-9
-194,-7,187,101,-190,90,163,59,-44,-58,37,-7
-195,-9,186,102,-190,89,160,57,-44,-61,36,-8
-197,-10,187,104,-192,89,159,57,-44,-61,35,-9
-196,-6,190,101,-193,92,162,58,-44,-61,35,-9
-194,-1,193,98,-193,96,165,59,-43,-60,34,-9
-196,-2,194,99,-195,96,164,58,-45,-61,34,-8
-197,-5,192,101,-194,94,162,57,-47,-62,33,-10
-196,-6,190,101,-193,92,163,58,-46,-62,34,-10
-197,-5,192,101,-194,94,163,58,-46,-61,34,-8
-197,-6,191,102,-194,93,161,57,-46,-61,35,-8
-195,-6,189,101,-192,92,160,57,-46,-60,35,-8
-195,-6,189,101,-192,92,159,56,-47,-62,35,-10
-198,-5,193,102,-195,94,158,53,-49,-64,33,-11
-198,-4,194,101,-196,95,160,54,-49,-64,33,-12
-198,-3,195,101,-196,96,161,55,-47,-63,32,-13
-198,-5,193,102,-195,94,160,55,-47,-64,32,-14
-198,-5,193,102,-195,94,160,55,-47,-63,34,-11
-195,-4,191,100,-193,94,161,56,-47,-61,35,-9
-195,-3,192,99,-193,95,159,57,-48,-61,34,-9
-196,-4,192,100,-194,94,157,56,-49,-63,33,-9
-194,-3,191,99,-192,94,157,57,-49,-62,35,-9
-192,0,192,96,-192,96,160,58,-46,-60,36,-8
-192,0,192,96,-192,96,161,58,-44,-60,36,-9
-193,0,193,97,-193,97,162,58,-44,-61,34,-11
-192,-1,191,97,-191,95,163,59,-44,-60,33,-12
-192,0,192,96,-192,96,164,61,-42,-58,35,-11
-193,1,194,96,-193,98,164,63,-41,-56,37,-10
-193,1,194,96,-193,98,164,64,-40,-54,38,-11
-192,1,193,96,-192,97,162,63,-41,-55,37,-11
-192,0,192,96,-192,96,164,64,-40,-54,37,-9
-193,-1,192,97,-192,96,163,61,-42,-57,32,-10
-194,-4,190,99,-192,93,163,61,-42,-57,30,-10
-192,-4,188,98,-190,92,162,61,-41,-58,34,-10
-189,-1,188,95,-188,94,161,61,-40,-58,40,-10
-188,0,188,94,-188,94,158,61,-39,-56,42,-9
-189,-1,188,95,-188,94,158,64,-37,-53,41,-7
-189,1,190,94,-189,96,158,64,-36,-53,39,-6
-188,4,192,92,-190,98,158,64,-36,-51,40,-5
-187,5,192,91,-189,99,154,61,-39,-52,41,-4
-187,4,191,92,-189,98,152,59,-41,-52,42,-4
-187,5,192,91,-189,99,152,55,-42,-53,41,-4
-187,6,193,91,-190,100,151,53,-42,-53,41,-3
-188,6,194,91,-191,100,150,52,-44,-56,40,-5
-190,4,194,93,-192,99,152,53,-45,-57,40,-5
-192,1,193,96,-192,97,154,53,-46,-60,38,-6
-194,-2,192,98,-193,95,154,53,-48,-62,35,-8
-195,-5,190,100,-192,93,153,52,-50,-63,32,-10
-195,-4,191,100,-193,94,154,54,-49,-61,33,-9
-193,-2,191,98,-192,95,156,56,-47,-58,36,-7
-191,-3,188,97,-189,93,157,57,-45,-57,38,-7
-192,-5,187,99,-189,91,156,57,-45,-57,38,-7
-195,-6,189,101,-192,92,155,55,-46,-58,37,-9
-196,-6,190,101,-193,92,154,54,-47,-59,36,-10
-191,0,191,96,-191,96,156,55,-46,-57,37,-9
-187,3,190,92,-188,97,159,58,-43,-55,37,-8
-191,-2,189,97,-190,94,159,58,-43,-56,35,-10
-193,-4,189,99,-191,93,159,56,-45,-58,34,-11
-188,2,190,93,-189,96,161,58,-43,-56,37,-7
-186,6,192,90,-189,99,161,59,-42,-54,39,-4
-189,3,192,93,-190,98,160,58,-44,-55,39,-4
-191,0,191,96,-191,96,157,55,-47,-57,37,-6
-192,-2,190,97,-191,94,157,55,-47,-58,36,-7
-195,-5,190,100,-192,93,159,56,-46,-58,35,-9
-198,-8,190,103,-194,91,160,58,-45,-58,33,-11
-197,-7,190,102,-193,92,160,59,-45,-59,29,-14
-196,-6,190,101,-193,92,161,59,-46,-60,28,-15
-196,-6,190,101,-193,92,163,57,-47,-61,29,-16
-196,-7,189,102,-192,91,162,55,-49,-63,29,-17
-197,-8,189,103,-193,91,161,54,-51,-65,29,-16
-197,-10,187,104,-192,89,161,53,-52,-68,28,-15
-198,-10,188,104,-193,89,161,52,-53,-69,26,-15
-197,-10,187,104,-192,89,161,54,-51,-67,25,-13
-199,-11,188,105,-193,89,161,54,-51,-66,25,-12
-202,-13,189,108,-195,88,160,53,-51,-67,27,-14
-202,-12,190,107,-196,89,160,53,-51,-66,30,-14
-202,-12,190,107,-196,89,160,53,-50,-65,29,-14
-203,-14,189,109,-196,88,160,54,-49,-65,26,-16
-202,-13,189,108,-195,88,161,54,-50,-66,26,-16
-199,-8,191,104,-195,92,163,54,-49,-66,29,-14
-197,-6,191,102,-194,93,163,54,-49,-65,30,-13
-197,-7,190,102,-193,92,162,55,-48,-64,32,-11
-197,-6,191,102,-194,93,160,54,-49,-65,31,-11
-197,-5,192,101,-194,94,160,55,-48,-65,29,-12
-198,-6,192,102,-195,93,161,55,-48,-64,26,-15
-198,-6,192,102,-195,93,161,54,-49,-64,26,-15
-197,-6,191,102,-194,93,161,55,-50,-65,26,-14
-199,-8,191,104,-195,92,162,56,-49,-64,27,-14
-201,-10,191,106,-196,91,161,55,-50,-64,27,-15
"
		-200","
		-7","
		193","
		104","
		-196","
		93","
		161","
		56","
		-50","
		-63","
		29","
		-13"
-198,-4,194,101,-196,95,161,56,-50,-63,30,-11
-199,-6,193,103,-196,94,161,54,-49,-65,29,-12
-203,-9,194,106,-198,93,160,52,-51,-66,26,-13
-203,-9,194,106,-198,93,159,52,-51,-66,25,-16
-200,-8,192,104,-196,92,160,55,-49,-65,24,-18
-198,-7,191,103,-194,92,161,57,-47,-64,24,-19
-200,-10,190,105,-195,90,164,61,-44,-63,23,-20
-204,-19,185,112,-194,83,169,68,-39,-63,19,-23
-205,-29,176,117,-190,74,176,79,-30,-61,16,-27
-203,-37,166,120,-184,65,185,92,-20,-58,13,-31
-200,-44,156,122,-178,56,193,106,-9,-57,8,-37
-198,-50,148,124,-173,49,201,119,2,-57,0,-45
-197,-52,145,125,-171,47,208,130,14,-54,-4,-48
-196,-47,149,122,-172,51,210,136,23,-51,-5,-48
-194,-34,160,114,-177,63,207,135,31,-46,-2,-43
-190,-16,174,103,-182,79,197,129,40,-34,8,-33
-187,7,194,90,-190,101,184,120,51,-13,29,-15
-183,37,220,73,-201,129,163,104,59,12,54,8
-176,72,248,52,-212,160,141,87,68,40,87,35
-164,111,275,27,-219,193,120,67,73,71,125,67
-154,154,308,0,-231,231,101,41,65,103,168,100
-150,194,344,-22,-247,269,80,5,36,126,208,132
-154,232,386,-39,-270,309,56,-40,-23,131,240,161
-159,280,439,-60,-299,360,32,-104,-115,121,274,197
-167,339,506,-86,-336,423,3,-189,-233,97,307,237
-180,384,564,-102,-372,474,-19,-262,-334,72,330,267
-189,405,594,-108,-391,500,-32,-298,-385,59,346,284
-190,405,595,-107,-392,500,-40,-306,-399,61,365,293
-190,384,574,-97,-382,479,-37,-302,-399,65,379,293
-192,341,533,-74,-362,437,-15,-285,-389,64,375,280
-194,290,484,-48,-339,387,17,-258,-374,52,354,254
-196,242,438,-23,-317,340,50,-230,-367,20,322,226
-200,204,404,-2,-302,304,75,-208,-371,-35,277,196
-205,167,372,19,-288,270,91,-191,-377,-98,223,164
-208,125,333,42,-270,229,104,-170,-374,-153,163,127
-212,84,296,64,-254,190,112,-150,-364,-199,102,88
-219,58,277,81,-248,168,111,-141,-355,-229,54,56
-224,44,268,90,-246,156,105,-141,-344,-235,26,36
-228,35,263,97,-245,149,98,-141,-329,-227,10,20
-233,26,259,104,-246,143,93,-138,-311,-215,1,7
-237,20,257,109,-247,139,87,-137,-296,-206,-5,-4
-238,11,249,114,-243,130,88,-130,-279,-197,-9,-14
-236,1,237,118,-236,119,97,-113,-254,-184,-9,-20
-232,-4,228,118,-230,112,105,-91,-225,-169,-8,-25
-228,-5,223,117,-225,109,114,-66,-195,-153,-3,-26
-224,-4,220,114,-222,108,123,-44,-167,-136,2,-25
-223,-1,222,112,-222,111,129,-27,-145,-123,6,-23
-220,1,221,110,-220,111,134,-10,-124,-108,13,-18
-213,6,219,104,-216,113,137,6,-107,-95,18,-14
-205,12,217,97,-211,115,141,21,-91,-84,23,-11
-201,16,217,93,-209,117,145,31,-79,-75,29,-8
-201,12,213,95,-207,113,147,37,-71,-71,31,-7
-204,4,208,100,-206,106,148,40,-65,-70,30,-9
-201,2,203,100,-202,103,151,44,-59,-69,31,-9
-197,1,198,98,-197,100,154,47,-53,-65,33,-7
-198,-2,196,100,-197,97,155,48,-49,-64,32,-9
-202,-6,196,104,-199,95,156,50,-47,-62,30,-12
-203,-6,197,105,-200,96,157,52,-45,-60,29,-12
-200,-2,198,101,-199,98,159,56,-43,-57,30,-11
-197,0,197,99,-197,99,159,58,-41,-54,31,-11
-197,0,197,99,-197,99,159,60,-39,-52,31,-12
-197,-1,196,99,-196,98,160,61,-35,-50,34,-10
-197,-1,196,99,-196,98,159,61,-32,-49,36,-9
-196,-3,193,100,-194,95,157,61,-31,-51,34,-11
-196,-4,192,100,-194,94,158,62,-29,-52,32,-12
-194,-3,191,99,-192,94,160,64,-26,-51,32,-11
-193,-3,190,98,-191,94,161,65,-24,-49,32,-11
-194,-4,190,99,-192,93,163,67,-24,-46,33,-11
-194,-3,191,99,-192,94,164,68,-25,-45,33,-11
-193,-1,192,97,-192,96,162,69,-25,-44,34,-10
-193,1,194,96,-193,98,160,69,-24,-43,36,-8
-195,-1,194,98,-194,97,158,68,-25,-45,36,-9
-198,-5,193,102,-195,94,157,66,-25,-48,34,-11
-196,-4,192,100,-194,94,157,66,-24,-48,34,-12
-191,0,191,96,-191,96,158,68,-21,-46,36,-11
-191,-2,189,97,-190,94,160,69,-20,-45,37,-11
-193,-4,189,99,-191,93,160,69,-20,-46,35,-12
-192,-2,190,97,-191,94,159,69,-20,-45,34,-12
-192,-1,191,97,-191,95,160,70,-21,-42,32,-11
-196,-2,194,99,-195,96,160,70,-22,-42,29,-10
-199,-3,196,101,-197,97,159,69,-21,-43,28,-10
-197,-2,195,100,-196,97,159,70,-20,-42,33,-9
-193,0,193,97,-193,97,159,69,-17,-40,39,-8
-192,0,192,96,-192,96,159,70,-14,-40,40,-7
-193,-1,192,97,-192,96,158,69,-14,-41,36,-9
-192,-3,189,98,-190,93,159,71,-12,-40,35,-9
-191,-3,188,97,-189,93,160,71,-13,-39,34,-10
-193,-3,190,98,-191,94,160,72,-13,-38,34,-10
-195,-4,191,100,-193,94,160,72,-13,-35,35,-10
-194,-2,192,98,-193,95,159,72,-14,-34,37,-9
-193,0,193,97,-193,97,158,71,-16,-35,39,-7
-195,-1,194,98,-194,97,158,69,-17,-37,39,-6
-195,-2,193,99,-194,96,157,68,-16,-40,38,-6
-193,0,193,97,-193,97,157,68,-14,-41,39,-6
-190,0,190,95,-190,95,157,68,-14,-41,39,-5
-190,0,190,95,-190,95,158,68,-13,-40,37,-7
-191,0,191,96,-191,96,158,69,-13,-39,35,-8
-191,-1,190,96,-190,95,159,72,-13,-37,35,-8
-192,-1,191,97,-191,95,159,72,-13,-35,35,-8
-192,0,192,96,-192,96,159,73,-13,-34,37,-7
-192,1,193,96,-192,97,158,71,-14,-34,39,-6
-192,2,194,95,-193,98,157,71,-13,-34,41,-3
-192,2,194,95,-193,98,156,71,-12,-35,41,-3
-191,1,192,95,-191,97,155,71,-10,-36,42,-3
-190,0,190,95,-190,95,154,70,-8,-36,42,-3
-190,-2,188,96,-189,93,155,70,-7,-35,41,-4
-190,-3,187,97,-188,92,157,71,-7,-35,39,-5
-190,-3,187,97,-188,92,159,72,-7,-33,40,-5
-191,-2,189,97,-190,94,159,72,-8,-31,40,-5
-195,-4,191,100,-193,94,157,71,-9,-30,41,-6
-200,-5,195,103,-197,95,155,70,-10,-30,41,-7
-197,-2,195,100,-196,97,154,70,-9,-29,43,-6
-190,3,193,94,-191,98,155,71,-6,-28,45,-3
-188,4,192,92,-190,98,154,71,-5,-29,46,-1
-190,0,190,95,-190,95,152,70,-5,-32,44,-2
-191,-2,189,97,-190,94,152,70,-4,-32,43,-2
-188,-1,187,95,-187,93,155,72,-2,-30,44,-1
-186,1,187,93,-186,94,156,74,-2,-28,43,-3
-187,1,188,93,-187,95,157,76,-2,-26,43,-3
-191,0,191,96,-191,96,155,74,-4,-25,43,-3
-194,0,194,97,-194,97,152,72,-5,-26,42,-5
-193,0,193,97,-193,97,152,73,-3,-24,45,-5
-187,6,193,91,-190,100,153,75,0,-22,48,-2
-185,7,192,89,-188,100,154,76,3,-21,50,1
-190,1,191,95,-190,96,154,76,4,-22,49,0
-191,-2,189,97,-190,94,153,75,4,-23,46,-1
-189,0,189,95,-189,95,155,78,7,-21,48,1
-188,0,188,94,-188,94,156,79,8,-18,49,2
-188,0,188,94,-188,94,155,79,8,-16,49,1
-187,3,190,92,-188,97,154,80,9,-13,51,2
-185,6,191,90,-188,99,153,80,10,-11,53,3
-186,6,192,90,-189,99,152,81,12,-10,55,5
-186,6,192,90,-189,99,150,80,13,-11,57,5
-185,8,193,89,-189,101,150,81,15,-10,59,7
-183,9,192,87,-187,101,149,82,17,-8,61,8
-183,7,190,88,-186,99,150,82,19,-8,59,8
-184,5,189,90,-186,97,152,84,20,-6,56,8
-182,5,187,89,-184,96,153,87,21,-3,54,10
-181,7,188,87,-184,98,152,88,22,0,56,11
-181,8,189,87,-185,99,150,87,21,1,60,11
-182,8,190,87,-186,99,150,88,23,4,66,13
-182,8,190,87,-186,99,149,89,24,6,69,15
-182,8,190,87,-186,99,148,89,27,10,70,16
-182,8,190,87,-186,99,149,90,31,12,71,17
-180,7,187,87,-183,97,149,91,33,13,72,17
-177,9,186,84,-181,98,150,94,36,17,74,19
-176,11,187,83,-181,99,150,95,37,19,75,20
-178,10,188,84,-183,99,151,97,38,21,77,21
-177,10,187,84,-182,99,150,97,38,22,80,23
-174,14,188,80,-181,101,149,98,40,26,84,26
-172,17,189,78,-180,103,147,99,41,29,87,28
-172,18,190,77,-181,104,146,100,43,32,90,30
-172,19,191,77,-181,105,145,101,46,36,93,32
-171,20,191,76,-181,106,144,101,48,38,95,33
-169,20,189,75,-179,105,143,101,50,40,97,35
-169,20,189,75,-179,105,143,102,52,43,99,36
-169,21,190,74,-179,106,143,103,53,47,101,37
-168,22,190,73,-179,106,143,104,52,49,104,38
-167,22,189,73,-178,106,143,104,53,54,107,40
-167,23,190,72,-178,107,142,105,53,58,110,43
-165,27,192,69,-178,110,141,106,54,61,113,46
-162,31,193,66,-177,112,140,106,56,64,118,48
-163,32,195,66,-179,114,137,103,55,63,119,49
-168,29,197,70,-182,113,135,100,55,62,120,49
-167,29,196,69,-181,113,135,101,57,64,123,50
-162,33,195,65,-178,114,135,102,59,68,126,52
-159,36,195,62,-177,116,135,103,59,71,127,53
-160,36,196,62,-178,116,136,104,58,73,129,54
-161,37,198,62,-179,118,136,104,57,75,130,56
-162,37,199,63,-180,118,135,103,56,77,131,57
-163,35,198,64,-180,117,133,101,54,79,133,58
-161,38,199,62,-180,119,132,100,54,81,136,61
-158,43,201,58,-179,122,131,97,53,82,138,62
-158,44,202,57,-180,123,130,95,52,83,138,62
-158,44,202,57,-180,123,130,94,53,82,138,62
-156,47,203,55,-179,125,131,93,53,82,137,62
-156,48,204,54,-180,126,133,92,51,80,136,61
-160,45,205,58,-182,125,133,89,46,77,133,58
-162,44,206,59,-184,125,133,88,42,74,129,57
-162,46,208,58,-185,127,133,87,39,70,127,57
-163,48,211,58,-187,130,132,85,37,66,126,56
-164,48,212,58,-188,130,131,82,33,62,124,55
-165,47,212,59,-188,130,131,79,31,57,120,53
-168,44,212,62,-190,128,131,77,27,50,115,49
-171,41,212,65,-191,127,133,75,23,43,110,45
-169,42,211,64,-190,127,134,73,19,39,104,42
-169,41,210,64,-189,126,136,72,16,34,99,40
-175,36,211,70,-193,124,138,72,13,30,95,38
-179,33,212,73,-195,123,139,70,8,23,89,34
-179,33,212,73,-195,123,140,69,4,19,85,32
-178,33,211,73,-194,122,142,68,2,17,83,31
-177,33,210,72,-193,122,143,67,0,14,82,30
-177,33,210,72,-193,122,143,65,-2,8,79,28
-180,30,210,75,-195,120,143,62,-5,2,75,25
-183,27,210,78,-196,119,143,59,-9,-5,70,20
-184,25,209,80,-196,117,144,58,-12,-11,66,16
-186,22,208,82,-197,115,145,57,-15,-15,63,14
-188,19,207,85,-197,113,145,57,-18,-19,57,11
-190,17,207,87,-198,112,144,57,-21,-23,51,8
-191,17,208,87,-199,113,146,58,-23,-25,46,8
-191,19,210,86,-200,115,148,57,-25,-27,44,8
-190,20,210,85,-200,115,148,56,-27,-29,46,8
-189,19,208,85,-198,114,147,54,-27,-32,49,6
-191,16,207,88,-199,112,148,53,-28,-34,49,5
-193,13,206,90,-199,110,149,53,-29,-37,44,4
-193,11,204,91,-198,108,149,52,-31,-40,40,2
-191,12,203,90,-197,108,150,52,-32,-42,39,0
-190,12,202,89,-196,107,152,53,-34,-43,38,-1
-192,10,202,91,-197,106,152,52,-36,-45,36,-3
-194,7,201,94,-197,104,151,52,-37,-47,35,-4
-195,7,202,94,-198,105,151,51,-38,-48,35,-4
-196,8,204,94,-200,106,151,51,-39,-49,34,-4
-197,8,205,95,-201,107,151,52,-37,-48,35,-3
-195,8,203,94,-199,106,152,52,-36,-48,35,-3
-195,7,202,94,-198,105,153,53,-35,-49,33,-4
-197,5,202,96,-199,104,154,53,-35,-50,33,-4
-198,3,201,98,-199,102,153,53,-36,-52,32,-4
-198,2,200,98,-199,101,154,53,-37,-53,32,-4
-197,4,201,97,-199,103,155,53,-37,-53,32,-4
-196,6,202,95,-199,104,155,54,-37,-52,32,-5
-196,7,203,95,-199,105,154,55,-35,-51,33,-5
-197,7,204,95,-200,106,153,54,-36,-53,32,-5
-197,7,204,95,-200,106,152,53,-37,-54,31,-5
-198,6,204,96,-201,105,152,52,-37,-54,32,-4
-199,4,203,98,-201,104,152,53,-36,-54,31,-4
-197,4,201,97,-199,103,152,52,-36,-54,29,-6
-194,7,201,94,-197,104,153,54,-35,-53,29,-7
-193,9,202,92,-197,106,154,55,-35,-52,29,-7
-196,7,203,95,-199,105,155,55,-35,-51,29,-7
-198,6,204,96,-201,105,154,55,-36,-52,28,-8
-197,7,204,95,-200,106,153,55,-36,-52,29,-7
-195,8,203,94,-199,106,153,56,-34,-52,31,-6
-193,11,204,91,-198,108,153,56,-33,-51,32,-6
-188,13,201,88,-194,107,153,57,-31,-50,32,-4
-186,14,200,86,-193,107,154,56,-30,-50,32,-4
-187,13,200,87,-193,107,155,57,-30,-51,32,-4
-192,11,203,91,-197,107,156,58,-29,-50,33,-3
-195,9,204,93,-199,107,158,59,-29,-49,33,-3
-196,9,205,94,-200,107,157,59,-29,-49,32,-4
-192,12,204,90,-198,108,158,60,-28,-47,33,-4
-188,17,205,86,-196,111,159,61,-27,-45,36,-1
-186,20,206,83,-196,113,158,60,-27,-46,35,0
-187,20,207,84,-197,114,157,60,-26,-47,36,-1
-186,20,206,83,-196,113,157,60,-25,-47,38,-1
-186,20,206,83,-196,113,156,59,-25,-47,37,-1
-188,18,206,85,-197,112,156,59,-26,-48,35,-2
-189,18,207,86,-198,113,157,60,-25,-47,32,-2
-189,19,208,85,-198,114,157,60,-25,-46,28,-2
-188,19,207,85,-197,113,158,61,-25,-44,27,-1
-188,19,207,85,-197,113,158,62,-25,-43,31,0
-187,20,207,84,-197,114,156,61,-26,-43,36,0
-187,21,208,83,-197,115,156,62,-24,-42,38,2
-187,22,209,83,-198,116,157,62,-23,-42,37,2
-187,22,209,83,-198,116,157,61,-23,-45,35,1
-187,20,207,84,-197,114,156,60,-24,-47,34,0
-187,18,205,85,-196,112,155,60,-24,-47,35,1
-187,19,206,84,-196,113,156,61,-24,-46,35,1
-186,19,205,84,-195,112,156,60,-25,-46,33,0
-187,18,205,85,-196,112,155,60,-25,-45,34,1
-188,18,206,85,-197,112,153,59,-25,-45,35,2
-186,20,206,83,-196,113,153,59,-26,-44,35,2
-185,22,207,82,-196,115,153,59,-27,-45,36,2
-186,21,207,83,-196,114,152,57,-28,-46,36,1
-187,21,208,83,-197,115,152,56,-28,-47,35,0
-186,22,208,82,-197,115,154,57,-26,-45,36,1
-184,22,206,81,-195,114,155,59,-25,-45,36,2
-185,21,206,82,-195,114,154,57,-26,-46,35,0
-185,21,206,82,-195,114,154,57,-27,-46,34,-1
-186,21,207,83,-196,114,155,59,-26,-45,35,0
-186,21,207,83,-196,114,155,58,-27,-44,35,0
-186,21,207,83,-196,114,154,57,-28,-44,35,0
-185,21,206,82,-195,114,152,56,-29,-46,35,0
-185,21,206,82,-195,114,151,55,-30,-47,37,0
-187,20,207,84,-197,114,151,55,-30,-47,36,1
-189,20,209,85,-199,115,151,55,-29,-47,36,3
-187,21,208,83,-197,115,153,55,-30,-48,36,2
-184,22,206,81,-195,114,154,55,-30,-49,37,2
-183,22,205,81,-194,114,154,55,-32,-50,35,1
-184,21,205,82,-194,113,153,55,-33,-51,35,1
-186,19,205,84,-195,112,152,54,-35,-52,34,0
-188,17,205,86,-196,111,152,54,-36,-51,34,-1
-189,17,206,86,-197,112,151,53,-37,-52,33,-1
-187,19,206,84,-196,113,151,53,-36,-53,34,-1
-184,22,206,81,-195,114,152,53,-34,-53,34,0
-182,24,206,79,-194,115,153,52,-33,-53,34,1
-182,23,205,80,-193,114,154,52,-34,-53,33,1
-185,19,204,83,-194,112,153,52,-37,-55,31,-1
-185,17,202,84,-193,110,153,54,-37,-54,31,-1
-184,17,201,84,-192,109,153,53,-39,-54,30,-2
-188,15,203,87,-195,109,154,53,-39,-54,31,-2
-190,14,204,88,-197,109,153,53,-40,-54,31,-1
-187,17,204,85,-195,111,153,53,-39,-54,31,0
-186,18,204,84,-195,111,154,53,-37,-53,33,1
-189,16,205,87,-197,111,154,52,-37,-55,31,0
-191,13,204,89,-197,109,153,51,-38,-57,29,0
-190,13,203,89,-196,108,153,51,-38,-57,29,-2
-187,16,203,86,-195,110,154,52,-37,-57,29,-2
-185,19,204,83,-194,112,155,52,-38,-56,29,-1
-185,18,203,84,-194,111,155,52,-39,-56,29,-1
"
		-186","
		17","
		203","
		85","
		-194","
		110","
		155","
		53","
		-40","
		-56","
		31","
		-1"
-187,17,204,85,-195,111,154,52,-40,-57,31,-1
-187,17,204,85,-195,111,154,52,-40,-57,31,-2
-186,17,203,85,-194,110,154,52,-39,-57,30,-2
-186,16,202,85,-194,109,153,53,-39,-57,29,-3
-186,15,201,86,-193,108,153,51,-39,-58,28,-3
-188,13,201,88,-194,107,154,50,-40,-58,27,-3
-190,11,201,90,-195,106,154,50,-41,-59,27,-3
-190,11,201,90,-195,106,152,49,-43,-59,26,-3
-190,11,201,90,-195,106,152,49,-43,-60,26,-3
-190,11,201,90,-195,106,152,49,-44,-60,27,-2
-189,12,201,89,-195,107,152,50,-43,-60,28,0
-188,13,201,88,-194,107,152,49,-43,-60,29,0
-187,15,202,86,-194,109,151,48,-43,-61,28,0
-186,15,201,86,-193,108,151,48,-42,-61,27,-1
-187,14,201,87,-194,108,151,47,-44,-63,26,-3
-187,12,199,88,-193,106,151,47,-44,-63,25,-4
-188,11,199,89,-193,105,151,47,-44,-62,24,-4
-188,11,199,89,-193,105,151,47,-44,-62,24,-4
-188,12,200,88,-194,106,151,47,-45,-62,23,-5
-188,12,200,88,-194,106,152,47,-45,-62,24,-4
-188,12,200,88,-194,106,152,47,-45,-61,25,-4
-188,12,200,88,-194,106,151,47,-46,-61,25,-3
-188,12,200,88,-194,106,150,46,-46,-61,25,-3
-188,12,200,88,-194,106,150,45,-45,-62,24,-2
-188,13,201,88,-194,107,149,45,-44,-62,24,-2
-187,12,199,88,-193,106,150,46,-44,-63,24,-2
-187,11,198,88,-192,105,150,45,-45,-63,23,-4
-187,10,197,89,-192,104,150,46,-44,-61,24,-4
-186,11,197,88,-191,104,151,46,-46,-61,24,-4
-187,11,198,88,-192,105,150,47,-47,-61,24,-4
-188,11,199,89,-193,105,150,47,-46,-61,23,-3
-188,11,199,89,-193,105,150,46,-46,-62,22,-4
-188,11,199,89,-193,105,150,46,-45,-62,22,-5
-189,10,199,90,-194,105,148,45,-46,-64,21,-6
-189,9,198,90,-193,104,150,45,-45,-64,22,-5
-187,10,197,89,-192,104,151,46,-44,-63,22,-4
-185,12,197,87,-191,105,151,46,-45,-62,21,-4
-185,11,196,87,-190,104,151,47,-45,-62,22,-4
-187,9,196,89,-191,103,151,47,-46,-62,21,-4
-187,10,197,89,-192,104,150,47,-47,-63,22,-4
-186,12,198,87,-192,105,149,46,-48,-64,23,-4
-186,12,198,87,-192,105,149,45,-48,-65,23,-4
-189,10,199,90,-194,105,148,43,-48,-66,22,-5
-192,8,200,92,-196,104,147,42,-48,-66,22,-4
-192,8,200,92,-196,104,147,42,-48,-66,22,-3
-190,10,200,90,-195,105,148,44,-47,-65,22,-3
-190,9,199,91,-194,104,149,44,-47,-65,20,-4
-192,6,198,93,-195,102,149,44,-48,-65,20,-3
-193,5,198,94,-195,102,148,43,-49,-64,21,-4
-192,6,198,93,-195,102,150,45,-47,-62,23,-3
-191,8,199,92,-195,104,150,46,-47,-62,23,-3
-191,7,198,92,-194,103,149,44,-48,-63,21,-3
-190,7,197,92,-193,102,149,44,-47,-63,21,-2
-186,12,198,87,-192,105,150,45,-45,-63,22,-1
-184,15,199,85,-191,107,151,45,-45,-64,22,-1
-186,13,199,87,-192,106,150,44,-46,-66,21,-3
-189,10,199,90,-194,105,149,43,-47,-67,20,-5
-190,9,199,91,-194,104,149,44,-47,-66,20,-5
-190,8,198,91,-194,103,150,44,-48,-65,20,-5
-191,8,199,92,-195,104,151,45,-47,-64,22,-4
-191,9,200,91,-195,105,149,44,-48,-64,22,-4
-190,10,200,90,-195,105,150,45,-47,-63,23,-2
-189,11,200,89,-194,106,150,45,-47,-63,21,-2
-189,11,200,89,-194,106,149,43,-47,-65,20,-3
-189,10,199,90,-194,105,148,42,-48,-67,19,-5
-188,9,197,90,-192,103,149,43,-48,-68,19,-6
-189,8,197,91,-193,103,150,43,-47,-68,20,-6
-190,7,197,92,-193,102,150,43,-48,-67,20,-6
-191,5,196,93,-193,101,151,44,-49,-66,20,-5
-190,6,196,92,-193,101,151,43,-49,-66,20,-5
-189,8,197,91,-193,103,150,43,-49,-65,21,-5
-188,9,197,90,-192,103,149,43,-49,-66,21,-5
-189,7,196,91,-192,102,148,42,-49,-67,20,-6
-190,6,196,92,-193,101,147,41,-49,-68,20,-6
-188,8,196,90,-192,102,148,41,-48,-68,20,-5
-187,8,195,90,-191,102,149,42,-48,-68,20,-5
-188,7,195,91,-191,101,148,42,-49,-68,20,-6
-190,5,195,93,-192,100,148,42,-49,-68,20,-6
-191,5,196,93,-193,101,149,43,-49,-67,20,-6
-191,7,198,92,-194,103,149,43,-49,-67,20,-6
-190,8,198,91,-194,103,149,43,-49,-66,21,-6
-189,7,196,91,-192,102,148,43,-49,-65,22,-5
-191,5,196,93,-193,101,148,43,-49,-65,21,-6
-193,3,196,95,-194,100,147,42,-49,-66,20,-7
-191,4,195,94,-193,100,147,42,-49,-67,20,-8
-189,5,194,92,-191,100,147,42,-48,-67,21,-8
-190,5,195,93,-192,100,147,42,-48,-68,20,-9
-191,3,194,94,-192,99,146,42,-49,-67,20,-8
-191,2,193,95,-192,98,146,42,-50,-66,19,-7
-191,3,194,94,-192,99,147,43,-49,-66,19,-7
-190,5,195,93,-192,100,148,44,-48,-64,20,-5
-188,7,195,91,-191,101,149,44,-47,-64,22,-4
-187,9,196,89,-191,103,148,43,-47,-65,22,-5
-187,9,196,89,-191,103,147,42,-49,-66,22,-5
-189,6,195,92,-192,101,147,41,-49,-68,21,-5
-191,3,194,94,-192,99,146,40,-50,-70,20,-6
-191,5,196,93,-193,101,148,41,-49,-68,22,-5
-188,8,196,90,-192,102,149,43,-48,-67,23,-4
-188,7,195,91,-191,101,149,43,-48,-67,23,-4
-190,4,194,93,-192,99,149,43,-49,-68,22,-6
-191,4,195,94,-193,100,149,42,-48,-67,21,-6
-189,6,195,92,-192,101,148,43,-48,-65,23,-4
-188,7,195,91,-191,101,147,42,-48,-66,22,-4
-188,6,194,91,-191,100,146,42,-48,-66,21,-5
-189,5,194,92,-191,100,147,42,-48,-66,21,-5
-189,4,193,93,-191,99,147,42,-48,-67,20,-6
-191,3,194,94,-192,99,148,41,-49,-68,20,-7
-193,2,195,96,-194,99,148,42,-49,-67,20,-6
-192,4,196,94,-194,100,148,42,-49,-67,20,-7
-190,5,195,93,-192,100,147,42,-49,-66,20,-7
-189,5,194,92,-191,100,146,43,-49,-66,21,-6
-189,6,195,92,-192,101,146,43,-50,-65,21,-5
-189,7,196,91,-192,102,145,42,-51,-66,20,-6
-190,7,197,92,-193,102,146,42,-50,-66,20,-5
-190,7,197,92,-193,102,146,42,-49,-67,21,-5
-189,6,195,92,-192,101,146,42,-48,-67,21,-6
-189,5,194,92,-191,100,147,43,-47,-67,21,-6
-188,5,193,92,-190,99,149,44,-46,-66,23,-6
-187,6,193,91,-190,100,149,45,-47,-65,22,-6
-189,6,195,92,-192,101,148,45,-47,-64,22,-6
-190,6,196,92,-193,101,148,45,-47,-64,21,-6
-189,7,196,91,-192,102,148,45,-47,-65,22,-7
-188,7,195,91,-191,101,147,44,-48,-66,21,-6
-187,6,193,91,-190,100,146,43,-48,-67,20,-7
-187,5,192,91,-189,99,146,43,-48,-68,19,-7
-188,5,193,92,-190,99,148,44,-47,-67,20,-6
-188,5,193,92,-190,99,148,44,-48,-67,21,-6
-188,4,192,92,-190,98,148,43,-49,-68,21,-7
-190,3,193,94,-191,98,148,44,-48,-67,21,-8
-191,4,195,94,-193,100,147,44,-48,-67,20,-8
-190,6,196,92,-193,101,148,45,-47,-66,21,-7
-188,8,196,90,-192,102,148,46,-46,-64,23,-6
-186,9,195,89,-190,102,148,45,-47,-64,23,-5
-185,8,193,89,-189,101,147,44,-47,-65,22,-5
-187,6,193,91,-190,100,147,44,-47,-66,21,-6
-189,3,192,93,-190,98,147,44,-46,-66,20,-8
-189,2,191,94,-190,97,146,44,-47,-67,19,-9
-187,3,190,92,-188,97,146,43,-48,-68,18,-9
-188,4,192,92,-190,98,147,44,-47,-67,19,-8
-189,5,194,92,-191,100,148,45,-46,-66,20,-7
-190,5,195,93,-192,100,147,44,-46,-65,21,-7
-191,5,196,93,-193,101,146,44,-47,-66,22,-6
-192,5,197,94,-194,101,146,44,-47,-66,22,-5
-189,7,196,91,-192,102,147,44,-47,-66,24,-3
-186,9,195,89,-190,102,149,45,-45,-65,25,-1
-185,8,193,89,-189,101,149,46,-45,-65,24,-2
-186,7,193,90,-189,100,148,46,-45,-66,22,-5
-188,5,193,92,-190,99,149,46,-44,-65,22,-5
-190,3,193,94,-191,98,148,46,-45,-66,20,-6
-192,3,195,95,-193,99,149,46,-45,-65,21,-5
-190,6,196,92,-193,101,149,45,-46,-65,23,-5
-185,6,191,90,-188,99,146,43,-48,-67,22,-5
-183,5,188,89,-185,97,142,41,-50,-69,20,-7
-185,3,188,91,-186,96,141,39,-50,-69,19,-7
-189,4,193,93,-191,99,144,41,-47,-67,20,-6
-190,5,195,93,-192,100,146,43,-45,-66,22,-5
-189,6,195,92,-192,101,148,45,-44,-64,23,-4
-188,6,194,91,-191,100,148,46,-44,-64,24,-4
-188,7,195,91,-191,101,149,46,-44,-64,24,-4
-188,7,195,91,-191,101,148,45,-45,-64,24,-3
-187,9,196,89,-191,103,147,44,-46,-64,24,-3
-185,11,196,87,-190,104,149,44,-45,-63,25,-1
-183,14,197,85,-190,106,149,43,-45,-62,26,0
-182,15,197,84,-189,106,146,42,-46,-64,25,0
-184,13,197,86,-190,105,146,42,-47,-65,25,-1
-185,11,196,87,-190,104,146,41,-47,-65,25,-3
-184,10,194,87,-189,102,146,43,-46,-64,25,-2
-182,11,193,86,-187,102,145,44,-46,-64,25,-2
-181,12,193,85,-187,103,146,45,-45,-63,25,-2
-181,13,194,84,-187,104,147,46,-44,-61,26,-1
-182,14,196,84,-189,105,148,48,-42,-60,28,1
-183,15,198,84,-190,107,149,50,-41,-59,29,3
-182,15,197,84,-189,106,148,49,-41,-61,28,3
-181,13,194,84,-187,104,149,51,-40,-60,29,3
-179,13,192,83,-185,103,150,51,-40,-59,28,1
-177,16,193,81,-185,105,151,52,-38,-59,28,2
-178,16,194,81,-186,105,154,54,-36,-57,30,3
-180,15,195,83,-187,105,153,53,-37,-57,29,3
-181,15,196,83,-188,106,151,51,-38,-57,29,2
-180,17,197,82,-188,107,150,52,-37,-55,29,2
-177,18,195,80,-186,107,150,54,-34,-52,30,3
-175,20,195,78,-185,108,148,55,-33,-52,30,3
-173,21,194,76,-183,108,147,56,-31,-51,31,4
-172,21,193,76,-182,107,145,57,-29,-49,33,6
-171,22,193,75,-182,108,143,55,-29,-50,33,7
-170,22,192,74,-181,107,141,54,-30,-51,35,8
-172,21,193,76,-182,107,139,50,-34,-54,35,8
-175,19,194,78,-184,107,137,46,-39,-55,34,9
-175,20,195,78,-185,108,134,41,-42,-57,33,8
-174,21,195,77,-184,108,135,41,-41,-55,33,10
-174,21,195,77,-184,108,136,42,-41,-56,33,9
-176,20,196,78,-186,108,138,42,-42,-57,32,7
-177,18,195,80,-186,107,140,41,-43,-59,29,6
-178,16,194,81,-186,105,141,41,-44,-61,28,5
-178,15,193,82,-185,104,141,42,-45,-61,28,5
-177,15,192,81,-184,104,143,43,-43,-59,29,5
-176,14,190,81,-183,102,145,45,-40,-58,30,5
-175,13,188,81,-181,101,145,47,-40,-58,29,3
-176,11,187,83,-181,99,145,48,-41,-57,29,3
-177,11,188,83,-182,100,144,47,-42,-58,28,4
-178,12,190,83,-184,101,142,46,-43,-58,28,3
-179,11,190,84,-184,101,142,45,-43,-57,28,4
-178,11,189,84,-183,100,141,43,-44,-58,27,3
-178,10,188,84,-183,99,143,43,-43,-57,28,5
-177,11,188,83,-182,100,142,41,-44,-59,28,5
-178,11,189,84,-183,100,143,41,-44,-59,28,5
-179,12,191,84,-185,102,144,42,-43,-58,29,6
-180,12,192,84,-186,102,145,44,-42,-57,31,6
-180,13,193,84,-186,103,145,43,-44,-58,30,4
-179,12,191,84,-185,102,145,44,-44,-59,28,2
-180,10,190,85,-185,100,147,44,-44,-59,28,1
-181,9,190,86,-185,100,148,45,-45,-60,27,0
-182,7,189,88,-185,98,148,45,-45,-61,24,-1
-183,5,188,89,-185,97,148,45,-45,-62,22,-1
-184,3,187,91,-185,95,147,43,-46,-64,21,-2
-188,0,188,94,-188,94,146,42,-48,-66,19,-5
-191,-2,189,97,-190,94,147,41,-49,-67,18,-6
-190,-1,189,96,-189,94,147,41,-49,-67,18,-6
