I,II,III,aVR,aVL,aVF,V1,V2,V3,V4,V5,V6
130,20,-110,-75,120,-45,46,89,12,-186,17,-143
129,20,-109,-74,119,-44,46,89,12,-186,16,-143
130,20,-110,-75,120,-45,45,88,12,-186,17,-143
130,20,-110,-75,120,-45,46,89,12,-185,18,-142
130,21,-109,-75,120,-44,46,89,13,-186,16,-143
131,21,-110,-76,121,-44,47,88,13,-186,15,-143
132,22,-110,-77,121,-44,46,88,12,-185,16,-144
133,22,-111,-77,122,-44,46,88,12,-184,17,-142
133,21,-112,-77,123,-45,46,88,12,-184,18,-141
131,20,-111,-75,121,-45,47,89,12,-183,18,-141
129,19,-110,-74,120,-45,47,90,12,-184,18,-141
128,19,-109,-73,119,-45,46,89,11,-185,17,-142
129,19,-110,-74,120,-45,46,89,12,-184,18,-142
130,20,-110,-75,120,-45,46,89,11,-184,17,-143
131,21,-110,-76,121,-44,46,89,12,-184,17,-142
131,22,-109,-76,120,-43,45,88,11,-185,16,-143
132,23,-109,-77,121,-43,45,88,11,-185,16,-142
133,23,-110,-78,122,-43,45,88,10,-187,16,-143
133,22,-111,-77,122,-44,45,89,11,-186,17,-142
132,22,-110,-77,121,-44,45,88,11,-187,16,-143
127,21,-106,-74,117,-42,46,90,11,-187,17,-141
125,21,-104,-73,115,-41,47,90,11,-188,17,-140
128,21,-107,-74,118,-43,47,89,11,-188,17,-141
132,23,-109,-77,121,-43,46,88,10,-189,16,-142
133,24,-109,-78,121,-42,45,87,9,-190,16,-141
133,24,-109,-78,121,-42,45,87,9,-190,17,-140
133,23,-110,-78,122,-43,44,86,8,-190,18,-140
133,23,-110,-78,122,-43,44,86,7,-190,17,-140
133,22,-111,-77,122,-44,45,88,8,-190,17,-140
132,22,-110,-77,121,-44,45,87,7,-191,17,-140
130,22,-108,-76,119,-43,46,88,7,-191,17,-140
129,21,-108,-75,119,-43,45,87,6,-193,16,-141
131,22,-109,-76,120,-43,44,86,6,-193,15,-142
132,23,-109,-77,121,-43,44,87,6,-193,16,-141
133,23,-110,-78,122,-43,44,85,5,-194,14,-142
133,23,-110,-78,122,-43,44,85,5,-195,13,-143
131,22,-109,-76,120,-43,45,85,5,-194,14,-142
129,22,-107,-75,118,-42,46,85,4,-194,16,-141
130,21,-109,-75,120,-44,46,85,4,-194,16,-141
131,20,-111,-75,121,-45,46,86,4,-193,17,-140
129,19,-110,-74,120,-45,46,86,3,-194,16,-140
128,18,-110,-73,119,-46,46,86,2,-195,15,-140
128,18,-110,-73,119,-46,45,85,1,-196,15,-141
128,19,-109,-73,119,-45,43,83,0,-197,15,-142
131,20,-111,-75,121,-45,44,84,0,-196,16,-142
133,23,-110,-78,122,-43,44,83,1,-197,14,-142
133,22,-111,-77,122,-44,45,84,2,-195,15,-141
132,21,-111,-76,122,-45,44,83,1,-197,14,-142
131,21,-110,-76,121,-44,45,83,1,-198,14,-142
131,20,-111,-75,121,-45,44,83,-1,-199,12,-142
130,18,-112,-74,121,-47,45,84,-1,-199,12,-143
129,19,-110,-74,120,-45,45,84,-1,-200,13,-143
128,19,-109,-73,119,-45,44,83,-1,-200,13,-143
126,19,-107,-72,117,-44,45,83,0,-200,14,-142
127,19,-108,-73,118,-44,45,83,0,-200,13,-141
130,20,-110,-75,120,-45,43,82,-2,-201,12,-143
132,21,-111,-76,122,-45,43,81,-4,-201,12,-143
133,20,-113,-76,123,-46,43,81,-5,-203,11,-144
131,19,-112,-75,122,-46,44,81,-5,-203,10,-143
130,20,-110,-75,120,-45,44,81,-6,-203,11,-143
130,20,-110,-75,120,-45,44,81,-6,-203,11,-143
130,20,-110,-75,120,-45,44,81,-5,-203,11,-143
130,20,-110,-75,120,-45,44,81,-4,-203,11,-143
130,21,-109,-75,120,-44,44,81,-4,-202,12,-143
131,20,-111,-75,121,-45,44,81,-4,-203,12,-142
132,19,-113,-75,123,-47,44,81,-4,-202,12,-142
132,19,-113,-75,123,-47,44,81,-5,-201,12,-142
130,19,-111,-74,121,-46,44,80,-5,-202,11,-143
128,17,-111,-72,120,-47,44,79,-6,-204,11,-143
128,16,-112,-72,120,-48,43,80,-7,-204,10,-144
128,16,-112,-72,120,-48,44,81,-6,-204,11,-144
128,16,-112,-72,120,-48,44,81,-5,-203,11,-144
129,16,-113,-72,121,-48,44,81,-5,-203,12,-143
130,16,-114,-73,122,-49,44,81,-5,-203,12,-142
130,17,-113,-73,122,-48,44,80,-6,-204,12,-142
131,18,-113,-74,122,-47,45,80,-6,-204,11,-141
131,19,-112,-75,122,-46,44,79,-7,-205,10,-143
131,19,-112,-75,122,-46,44,79,-8,-206,8,-144
129,17,-112,-73,121,-47,46,80,-6,-204,9,-142
126,17,-109,-71,118,-46,46,81,-5,-204,11,-142
126,17,-109,-71,118,-46,46,82,-5,-204,12,-141
128,17,-111,-72,120,-47,46,81,-5,-204,11,-142
129,17,-112,-73,121,-47,45,81,-5,-204,12,-142
130,17,-113,-73,122,-48,43,79,-6,-205,11,-143
130,17,-113,-73,122,-48,42,79,-6,-205,11,-142
130,18,-112,-74,121,-47,43,79,-6,-205,11,-141
129,18,-111,-73,120,-46,43,79,-6,-204,10,-142
129,17,-112,-73,121,-47,45,81,-6,-204,11,-142
129,16,-113,-72,121,-48,45,81,-7,-204,11,-142
129,16,-113,-72,121,-48,45,80,-7,-204,11,-143
128,15,-113,-71,121,-49,44,80,-8,-204,10,-144
126,14,-112,-70,119,-49,44,80,-9,-206,9,-145
127,14,-113,-70,120,-49,43,79,-9,-206,9,-145
128,16,-112,-72,120,-48,43,78,-8,-205,10,-145
129,17,-112,-73,121,-47,44,79,-7,-204,10,-144
128,17,-111,-72,120,-47,44,79,-7,-205,10,-144
128,17,-111,-72,120,-47,44,79,-7,-205,10,-145
128,17,-111,-72,120,-47,44,79,-8,-205,10,-145
128,17,-111,-72,120,-47,44,79,-7,-205,9,-145
128,17,-111,-72,120,-47,44,80,-7,-205,9,-145
128,15,-113,-71,121,-49,44,80,-7,-204,9,-144
126,13,-113,-69,120,-50,45,80,-8,-205,9,-144
126,12,-114,-69,120,-51,45,79,-8,-205,8,-145
127,13,-114,-70,121,-50,45,79,-8,-205,8,-144
128,14,-114,-71,121,-50,45,79,-8,-205,9,-144
129,16,-113,-72,121,-48,44,78,-9,-205,10,-144
129,17,-112,-73,121,-47,44,79,-8,-203,12,-143
130,17,-113,-73,122,-48,44,78,-9,-204,10,-144
129,16,-113,-72,121,-48,45,79,-9,-204,10,-143
127,15,-112,-71,120,-48,45,79,-9,-204,11,-142
124,14,-110,-69,117,-48,46,79,-9,-204,12,-142
123,14,-109,-68,116,-47,46,80,-7,-203,13,-141
125,15,-110,-70,118,-47,45,79,-8,-203,12,-142
127,15,-112,-71,120,-48,43,78,-8,-204,12,-143
128,16,-112,-72,120,-48,42,78,-9,-205,10,-145
129,16,-113,-72,121,-48,43,77,-9,-205,10,-145
129,17,-112,-73,121,-47,43,77,-9,-206,9,-146
129,16,-113,-72,121,-48,43,77,-9,-206,8,-146
128,15,-113,-71,121,-49,44,78,-9,-205,9,-145
127,14,-113,-70,120,-49,44,78,-10,-206,9,-145
126,14,-112,-70,119,-49,45,79,-9,-205,10,-145
125,14,-111,-69,118,-48,45,78,-9,-206,10,-145
126,14,-112,-70,119,-49,45,79,-8,-205,10,-144
127,15,-112,-71,120,-48,44,78,-9,-205,10,-144
129,16,-113,-72,121,-48,44,77,-9,-205,9,-144
130,17,-113,-73,122,-48,44,76,-10,-205,9,-144
130,17,-113,-73,122,-48,43,77,-10,-205,9,-143
129,16,-113,-72,121,-48,44,78,-9,-206,9,-143
128,15,-113,-71,121,-49,45,79,-9,-206,9,-143
127,15,-112,-71,120,-48,45,79,-10,-206,9,-142
126,14,-112,-70,119,-49,45,79,-9,-205,10,-142
125,13,-112,-69,119,-49,44,78,-10,-207,9,-144
124,12,-112,-68,118,-50,44,78,-10,-206,10,-144
126,13,-113,-69,120,-50,44,78,-10,-207,9,-144
127,15,-112,-71,120,-48,44,78,-10,-207,9,-144
127,15,-112,-71,120,-48,44,78,-9,-206,9,-143
127,15,-112,-71,120,-48,44,78,-9,-206,10,-143
127,15,-112,-71,120,-48,45,79,-10,-206,10,-143
128,16,-112,-72,120,-48,44,78,-10,-207,9,-144
127,16,-111,-71,119,-47,45,79,-9,-206,10,-143
124,15,-109,-69,117,-47,45,79,-8,-206,11,-143
125,13,-112,-69,119,-49,44,79,-9,-207,11,-143
128,14,-114,-71,121,-50,43,78,-10,-207,11,-143
129,15,-114,-72,122,-49,43,77,-11,-207,10,-143
130,15,-115,-72,123,-50,43,77,-11,-208,9,-143
129,15,-114,-72,122,-49,43,76,-11,-209,8,-144
129,15,-114,-72,122,-49,43,76,-11,-209,7,-144
128,15,-113,-71,121,-49,44,76,-10,-208,7,-143
128,15,-113,-71,121,-49,43,76,-11,-209,6,-144
127,15,-112,-71,120,-48,43,76,-11,-210,6,-145
127,14,-113,-70,120,-49,43,76,-11,-210,6,-145
127,14,-113,-70,120,-49,43,77,-11,-210,7,-145
128,15,-113,-71,121,-49,44,78,-9,-209,9,-144
127,15,-112,-71,120,-48,44,77,-9,-209,9,-144
127,14,-113,-70,120,-49,44,76,-11,-210,8,-144
127,14,-113,-70,120,-49,44,77,-11,-210,7,-144
127,16,-111,-71,119,-47,44,77,-11,-209,8,-143
128,17,-111,-72,120,-47,44,77,-12,-209,8,-143
128,17,-111,-72,120,-47,43,77,-12,-209,8,-143
127,16,-111,-71,119,-47,44,77,-12,-209,8,-142
126,15,-111,-70,119,-48,43,76,-13,-210,8,-143
126,15,-111,-70,119,-48,43,76,-13,-211,7,-143
127,16,-111,-71,119,-47,43,76,-12,-211,7,-143
127,17,-110,-72,119,-46,42,75,-12,-211,7,-144
128,17,-111,-72,120,-47,42,75,-11,-211,8,-144
127,17,-110,-72,119,-46,43,76,-11,-211,8,-143
126,16,-110,-71,118,-47,44,77,-11,-210,9,-142
127,16,-111,-71,119,-47,44,77,-11,-210,9,-142
127,16,-111,-71,119,-47,44,77,-11,-210,9,-143
126,17,-109,-71,118,-46,43,77,-11,-210,8,-143
126,16,-110,-71,118,-47,43,76,-12,-210,7,-144
126,16,-110,-71,118,-47,43,75,-13,-211,7,-144
125,16,-109,-70,117,-46,43,76,-13,-211,7,-144
124,17,-107,-70,116,-45,42,76,-13,-211,7,-144
124,18,-106,-71,115,-44,42,75,-13,-211,7,-144
127,18,-109,-72,118,-45,41,75,-13,-212,7,-144
129,19,-110,-74,120,-45,41,75,-13,-212,6,-144
129,19,-110,-74,120,-45,42,75,-13,-211,6,-144
129,18,-111,-73,120,-46,42,74,-14,-212,6,-144
128,18,-110,-73,119,-46,42,75,-13,-212,7,-143
127,19,-108,-73,118,-44,42,75,-14,-212,7,-142
127,19,-108,-73,118,-44,41,75,-14,-212,7,-142
127,19,-108,-73,118,-44,41,74,-14,-212,7,-143
128,18,-110,-73,119,-46,41,74,-15,-213,6,-143
127,18,-109,-72,118,-45,41,74,-15,-213,5,-144
127,19,-108,-73,118,-44,42,74,-14,-213,6,-143
127,19,-108,-73,118,-44,42,74,-13,-213,7,-142
128,19,-109,-73,119,-45,41,73,-15,-214,5,-144
128,18,-110,-73,119,-46,42,74,-15,-214,5,-143
127,17,-110,-72,119,-46,41,74,-16,-215,4,-144
126,17,-109,-71,118,-46,42,75,-15,-214,5,-144
127,18,-109,-72,118,-45,41,73,-16,-216,3,-145
127,19,-108,-73,118,-44,41,73,-16,-215,4,-145
127,19,-108,-73,118,-44,42,74,-15,-215,5,-144
127,19,-108,-73,118,-44,42,74,-14,-215,5,-144
128,19,-109,-73,119,-45,41,73,-15,-215,4,-145
128,19,-109,-73,119,-45,42,73,-15,-215,4,-144
128,19,-109,-73,119,-45,42,74,-16,-215,4,-144
127,18,-109,-72,118,-45,42,74,-15,-215,4,-145
125,18,-107,-71,116,-44,42,74,-15,-214,3,-145
126,18,-108,-72,117,-45,41,73,-16,-215,2,-146
126,17,-109,-71,118,-46,41,74,-16,-214,4,-145
125,17,-108,-71,117,-45,40,73,-17,-215,3,-145
124,17,-107,-70,116,-45,40,72,-17,-215,2,-145
124,18,-106,-71,115,-44,41,73,-16,-215,3,-145
124,19,-105,-71,115,-43,42,75,-15,-214,4,-144
127,20,-107,-73,117,-43,41,73,-16,-215,3,-145
129,20,-109,-74,119,-44,41,74,-15,-215,3,-144
129,21,-108,-75,119,-43,40,72,-17,-216,2,-145
127,21,-106,-74,117,-42,41,73,-17,-215,3,-145
126,20,-106,-73,116,-43,41,73,-17,-215,4,-145
126,19,-107,-72,117,-44,40,73,-18,-215,4,-146
127,19,-108,-73,118,-44,41,73,-17,-215,4,-146
126,20,-106,-73,116,-43,41,73,-16,-214,5,-145
126,20,-106,-73,116,-43,42,73,-15,-214,5,-144
127,21,-106,-74,117,-42,42,73,-15,-215,4,-144
127,21,-106,-74,117,-42,42,73,-16,-215,3,-144
126,21,-105,-73,116,-42,41,72,-17,-216,2,-145
127,20,-107,-73,117,-43,40,71,-19,-217,1,-146
127,19,-108,-73,118,-44,41,72,-18,-216,2,-146
127,19,-108,-73,118,-44,41,72,-18,-215,3,-146
126,19,-107,-72,117,-44,40,73,-18,-215,3,-146
126,19,-107,-72,117,-44,40,73,-17,-215,3,-146
127,20,-107,-73,117,-43,40,73,-17,-216,2,-146
128,20,-108,-74,118,-44,41,73,-17,-215,3,-146
129,21,-108,-75,119,-43,41,72,-17,-216,3,-145
129,21,-108,-75,119,-43,41,72,-17,-215,3,-144
129,21,-108,-75,119,-43,41,72,-18,-216,1,-145
128,21,-107,-74,118,-43,41,72,-18,-216,1,-145
127,22,-105,-74,116,-41,40,73,-18,-216,1,-146
127,21,-106,-74,117,-42,40,72,-18,-217,1,-147
126,19,-107,-72,117,-44,40,72,-18,-216,2,-146
125,20,-105,-72,115,-42,40,73,-17,-216,2,-145
124,20,-104,-72,114,-42,41,74,-16,-216,2,-145
124,20,-104,-72,114,-42,41,73,-18,-217,2,-146
126,19,-107,-72,117,-44,42,72,-18,-217,2,-146
128,20,-108,-74,118,-44,41,72,-18,-217,1,-146
128,21,-107,-74,118,-43,42,72,-18,-215,1,-145
128,21,-107,-74,118,-43,42,71,-19,-216,1,-145
127,20,-107,-73,117,-43,41,71,-19,-216,0,-146
126,20,-106,-73,116,-43,41,72,-18,-216,1,-146
126,20,-106,-73,116,-43,40,72,-18,-216,1,-146
127,20,-107,-73,117,-43,40,71,-19,-217,1,-146
127,21,-106,-74,117,-42,41,72,-18,-216,2,-145
127,21,-106,-74,117,-42,41,72,-18,-215,2,-144
126,20,-106,-73,116,-43,42,73,-17,-214,3,-143
127,20,-107,-73,117,-43,41,72,-18,-215,2,-144
128,22,-106,-75,117,-42,40,72,-18,-216,1,-144
128,23,-105,-75,117,-41,40,72,-18,-216,1,-144
127,22,-105,-74,116,-41,40,72,-18,-216,1,-144
126,21,-105,-73,116,-42,39,71,-19,-217,0,-145
125,20,-105,-72,115,-42,39,72,-19,-216,0,-145
125,20,-105,-72,115,-42,40,72,-19,-216,0,-144
126,21,-105,-73,116,-42,39,71,-20,-216,0,-145
126,21,-105,-73,116,-42,39,70,-20,-216,0,-145
127,22,-105,-74,116,-41,40,71,-20,-216,0,-145
127,22,-105,-74,116,-41,41,72,-19,-215,0,-144
127,22,-105,-74,116,-41,41,71,-19,-216,0,-144
127,21,-106,-74,117,-42,39,70,-20,-217,0,-144
126,19,-107,-72,117,-44,39,71,-19,-216,0,-144
126,18,-108,-72,117,-45,38,70,-20,-216,-1,-145
126,18,-108,-72,117,-45,38,69,-20,-217,-2,-146
127,18,-109,-72,118,-45,38,70,-21,-218,-2,-147
126,19,-107,-72,117,-44,41,72,-18,-217,-1,-146
126,21,-105,-73,116,-42,42,73,-17,-216,0,-145
126,22,-104,-74,115,-41,44,75,-16,-215,2,-145
129,22,-107,-75,118,-42,45,75,-16,-215,1,-145
131,23,-108,-77,120,-42,45,76,-16,-215,0,-145
133,23,-110,-78,122,-43,45,76,-16,-215,-1,-146
133,22,-111,-77,122,-44,45,77,-15,-214,0,-145
133,21,-112,-77,123,-45,44,76,-15,-214,0,-145
133,21,-112,-77,123,-45,42,75,-16,-214,0,-146
133,21,-112,-77,123,-45,42,76,-16,-213,0,-146
134,21,-113,-77,124,-46,43,78,-16,-213,1,-145
136,22,-114,-79,125,-46,43,77,-16,-213,1,-145
136,23,-113,-79,125,-45,43,77,-16,-213,1,-144
136,24,-112,-80,124,-44,43,77,-15,-212,1,-144
135,24,-111,-79,123,-43,44,78,-14,-213,0,-144
134,23,-111,-78,123,-44,46,80,-12,-211,1,-143
135,23,-112,-79,124,-44,47,82,-11,-210,2,-143
136,23,-113,-79,125,-45,47,82,-11,-211,1,-144
135,23,-112,-79,124,-44,48,82,-11,-211,2,-143
135,23,-112,-79,124,-44,47,82,-12,-211,2,-143
135,24,-111,-79,123,-43,47,82,-13,-212,1,-143
136,25,-111,-80,124,-43,48,82,-12,-212,2,-142
137,26,-111,-81,124,-42,47,82,-13,-212,1,-143
138,25,-113,-81,126,-44,47,81,-13,-212,1,-143
138,25,-113,-81,126,-44,47,81,-13,-212,1,-143
137,25,-112,-81,125,-43,46,79,-13,-212,0,-143
137,24,-113,-80,125,-44,46,79,-13,-211,1,-143
136,23,-113,-79,125,-45,41,76,-16,-213,0,-144
135,22,-113,-78,124,-45,37,74,-17,-214,0,-144
136,22,-114,-79,125,-46,35,73,-17,-214,0,-144
137,22,-115,-79,126,-46,35,71,-19,-215,-1,-145
138,22,-116,-80,127,-47,35,71,-19,-215,-1,-146
137,23,-114,-80,126,-45,36,71,-19,-214,-1,-145
136,24,-112,-80,124,-44,37,71,-18,-213,-1,-145
135,25,-110,-80,123,-42,38,72,-18,-214,-1,-144
135,24,-111,-79,123,-43,39,73,-18,-214,-1,-144
137,24,-113,-80,125,-44,39,74,-18,-212,-1,-143
138,24,-114,-81,126,-45,38,73,-18,-212,-1,-143
"
		138","
		24","
		-114","
		-81","
		126","
		-45","
		38","
		73","
		-19","
		-213","
		-1","
		-143"
136,24,-112,-80,124,-44,37,73,-20,-214,-1,-144
135,24,-111,-79,123,-43,35,71,-22,-215,-2,-146
134,23,-111,-78,123,-44,36,70,-22,-216,-3,-146
133,22,-111,-77,122,-44,37,70,-22,-215,-3,-146
133,22,-111,-77,122,-44,37,70,-22,-216,-4,-145
133,23,-110,-78,122,-43,36,68,-24,-217,-6,-146
132,23,-109,-77,121,-43,37,68,-24,-217,-5,-146
128,21,-107,-74,118,-43,39,69,-24,-217,-4,-146
125,20,-105,-72,115,-42,39,69,-23,-218,-4,-146
125,21,-104,-73,115,-41,40,70,-22,-218,-5,-147
126,22,-104,-74,115,-41,39,69,-22,-218,-5,-147
128,22,-106,-75,117,-42,39,69,-22,-218,-5,-147
129,23,-106,-76,118,-41,39,69,-22,-218,-5,-147
129,24,-105,-76,117,-40,38,67,-23,-219,-6,-148
129,24,-105,-76,117,-40,38,67,-24,-218,-7,-147
129,24,-105,-76,117,-40,38,67,-24,-217,-6,-147
129,24,-105,-76,117,-40,38,67,-24,-216,-5,-146
128,23,-105,-75,117,-41,38,68,-24,-216,-5,-146
126,22,-104,-74,115,-41,38,68,-24,-216,-5,-146
125,22,-103,-73,114,-40,38,68,-24,-216,-5,-146
126,22,-104,-74,115,-41,38,68,-23,-216,-5,-146
127,22,-105,-74,116,-41,38,69,-22,-216,-5,-146
128,23,-105,-75,117,-41,38,69,-22,-216,-5,-146
129,24,-105,-76,117,-40,38,68,-22,-216,-5,-146
129,25,-104,-77,117,-39,38,68,-22,-215,-5,-146
127,25,-102,-76,115,-38,39,69,-21,-214,-4,-145
125,25,-100,-75,113,-37,40,69,-22,-215,-4,-144
125,24,-101,-74,113,-38,40,70,-21,-214,-3,-144
126,24,-102,-75,114,-39,39,68,-23,-216,-5,-146
127,24,-103,-75,115,-39,39,68,-23,-216,-5,-146
128,24,-104,-76,116,-40,39,68,-23,-216,-5,-146
128,24,-104,-76,116,-40,39,68,-23,-215,-5,-146
128,24,-104,-76,116,-40,40,69,-22,-215,-5,-146
128,25,-103,-76,116,-39,40,69,-22,-216,-7,-147
128,26,-102,-77,115,-38,41,70,-21,-216,-7,-147
126,25,-101,-75,114,-38,43,73,-19,-215,-8,-147
125,24,-101,-74,113,-38,46,76,-17,-215,-8,-148
124,22,-102,-73,113,-40,49,80,-15,-215,-10,-150
124,19,-105,-71,115,-43,52,84,-12,-216,-11,-152
123,17,-106,-70,115,-44,55,89,-8,-215,-13,-154
122,17,-105,-69,114,-44,59,94,-1,-213,-13,-155
125,20,-105,-72,115,-42,60,97,5,-211,-12,-155
128,23,-105,-75,117,-41,60,98,12,-205,-9,-153
131,25,-106,-78,119,-40,58,98,18,-198,-6,-151
133,27,-106,-80,120,-39,58,104,28,-188,-1,-147
138,30,-108,-84,123,-39,59,111,39,-176,6,-143
144,32,-112,-88,128,-40,62,123,54,-162,14,-137
147,35,-112,-91,130,-38,70,139,75,-146,24,-131
149,41,-108,-95,129,-33,80,159,102,-122,37,-122
155,54,-101,-104,128,-23,86,175,132,-91,57,-108
164,74,-90,-119,127,-8,82,181,161,-57,83,-90
173,99,-74,-136,124,13,68,172,185,-17,115,-66
183,131,-52,-157,118,40,42,145,203,27,150,-37
196,167,-29,-181,113,69,4,103,217,76,189,-5
209,202,-7,-205,108,98,-42,54,228,131,231,27
221,229,8,-225,107,119,-86,6,234,181,266,52
226,241,15,-233,106,128,-114,-32,244,222,289,67
218,241,23,-229,98,132,-128,-65,258,251,300,70
199,234,35,-216,82,135,-130,-98,263,266,300,68
177,221,44,-199,67,133,-126,-128,250,257,288,57
160,198,38,-179,61,118,-117,-144,218,214,258,36
147,166,19,-156,64,93,-107,-149,155,131,211,4
131,133,2,-132,65,68,-98,-147,64,15,152,-32
112,103,-9,-107,61,47,-82,-136,-31,-104,93,-68
92,77,-15,-84,54,31,-62,-120,-104,-201,42,-100
80,56,-24,-68,52,16,-49,-107,-148,-264,3,-127
77,46,-31,-61,54,8,-47,-100,-168,-293,-19,-142
78,41,-37,-59,58,2,-51,-95,-171,-298,-27,-148
80,34,-46,-57,63,-6,-57,-93,-169,-298,-34,-155
82,27,-55,-54,69,-14,-62,-88,-163,-294,-36,-160
89,23,-66,-56,78,-21,-68,-78,-152,-287,-37,-163
96,21,-75,-58,86,-27,-68,-63,-135,-278,-35,-164
102,18,-84,-60,93,-33,-59,-45,-116,-269,-34,-164
107,13,-94,-60,101,-40,-47,-25,-100,-260,-32,-164
112,8,-104,-60,108,-48,-37,-6,-87,-253,-30,-164
115,5,-110,-60,113,-52,-27,7,-76,-249,-28,-164
118,4,-114,-61,116,-55,-16,20,-66,-244,-26,-163
121,3,-118,-62,120,-57,-3,35,-53,-237,-22,-161
122,4,-118,-63,120,-57,10,49,-40,-229,-18,-158
123,9,-114,-66,119,-52,20,60,-27,-221,-12,-154
126,17,-109,-71,118,-46,29,71,-14,-212,-5,-148
129,25,-104,-77,117,-39,35,81,-4,-204,0,-144
131,33,-98,-82,115,-32,40,88,4,-198,4,-140
132,39,-93,-85,113,-27,44,91,8,-196,6,-136
132,44,-88,-88,110,-22,46,94,12,-192,10,-133
130,47,-83,-88,107,-18,47,95,13,-191,10,-133
128,47,-81,-87,105,-17,49,97,14,-191,11,-134
126,45,-81,-85,104,-18,49,99,16,-191,11,-134
127,44,-83,-85,105,-19,49,98,17,-192,10,-135
129,43,-86,-86,108,-21,48,98,19,-192,10,-135
131,43,-88,-87,110,-22,49,97,19,-193,9,-136
131,44,-87,-87,109,-21,51,99,20,-192,10,-135
131,45,-86,-88,109,-20,53,100,21,-191,10,-134
131,47,-84,-89,108,-18,53,101,21,-191,10,-134
132,48,-84,-90,108,-18,53,102,22,-191,10,-134
133,49,-84,-91,109,-17,54,104,22,-190,10,-134
133,49,-84,-91,109,-17,54,104,22,-189,10,-134
133,48,-85,-90,109,-18,53,104,23,-189,10,-134
131,47,-84,-89,108,-18,53,105,24,-189,11,-134
132,47,-85,-89,109,-19,53,104,24,-188,11,-134
132,48,-84,-90,108,-18,53,104,26,-186,12,-133
133,49,-84,-91,109,-17,54,106,28,-184,13,-131
133,49,-84,-91,109,-17,55,107,28,-184,14,-131
133,50,-83,-91,108,-16,55,108,28,-184,13,-132
133,51,-82,-92,108,-15,55,109,28,-183,13,-131
134,52,-82,-93,108,-15,55,109,28,-184,13,-132
135,52,-83,-93,109,-15,55,109,30,-183,13,-132
135,52,-83,-93,109,-15,55,109,32,-182,13,-131
134,51,-83,-92,109,-16,56,110,33,-181,15,-130
134,51,-83,-92,109,-16,55,109,34,-181,15,-130
134,51,-83,-92,109,-16,56,110,36,-180,16,-129
135,51,-84,-93,110,-16,56,110,36,-179,17,-129
136,53,-83,-94,110,-15,56,110,36,-178,17,-129
137,55,-82,-96,110,-13,57,111,37,-177,17,-128
137,56,-81,-96,109,-12,58,113,38,-176,18,-128
136,54,-82,-95,109,-14,57,114,38,-176,17,-128
136,55,-81,-95,109,-13,57,114,39,-176,16,-128
136,56,-80,-96,108,-12,57,113,40,-175,17,-128
135,56,-79,-95,107,-11,58,114,42,-172,20,-126
133,56,-77,-94,105,-10,58,114,43,-172,20,-125
134,56,-78,-95,106,-11,58,115,45,-170,22,-125
137,56,-81,-96,109,-12,58,115,46,-169,23,-125
138,57,-81,-97,110,-12,57,115,45,-169,22,-125
138,58,-80,-98,109,-11,57,115,46,-169,22,-124
138,59,-79,-98,109,-10,58,117,47,-168,22,-124
138,60,-78,-99,108,-9,58,117,47,-168,21,-125
138,60,-78,-99,108,-9,57,117,47,-167,22,-125
137,59,-78,-98,108,-9,58,118,49,-166,23,-124
137,58,-79,-97,108,-10,58,118,50,-165,23,-124
137,58,-79,-97,108,-10,58,118,53,-164,24,-123
138,58,-80,-98,109,-11,58,119,56,-162,26,-122
139,59,-80,-99,110,-10,57,119,56,-161,26,-122
139,61,-78,-100,109,-8,59,121,57,-159,28,-120
140,63,-77,-101,109,-7,60,122,58,-158,28,-120
140,65,-75,-102,108,-5,60,123,59,-156,28,-120
140,65,-75,-102,108,-5,59,124,59,-157,28,-120
140,64,-76,-102,108,-6,58,124,60,-158,27,-120
140,63,-77,-101,109,-7,59,125,62,-156,29,-119
140,63,-77,-101,109,-7,60,126,65,-154,31,-118
140,63,-77,-101,109,-7,60,126,68,-152,32,-117
140,64,-76,-102,108,-6,60,126,69,-152,33,-116
141,65,-76,-103,109,-5,60,127,71,-150,35,-115
141,67,-74,-104,108,-3,59,128,72,-149,35,-115
142,69,-73,-105,108,-2,59,130,73,-148,34,-115
143,70,-73,-106,108,-1,59,131,73,-147,35,-115
143,71,-72,-107,108,0,60,132,73,-146,36,-114
142,72,-70,-107,106,1,60,133,75,-145,36,-113
141,72,-69,-106,105,2,60,134,77,-143,38,-112
142,72,-70,-107,106,1,61,135,79,-141,39,-111
143,72,-71,-107,107,1,61,136,82,-139,40,-110
145,72,-73,-108,109,0,60,136,83,-138,40,-110
146,73,-73,-109,110,0,60,137,85,-137,41,-110
146,75,-71,-110,109,2,61,139,87,-134,43,-108
147,78,-69,-112,108,5,60,140,88,-132,43,-108
147,79,-68,-113,108,6,62,142,91,-129,45,-106
147,80,-67,-113,107,7,63,145,93,-127,47,-105
148,81,-67,-114,108,7,63,145,95,-125,48,-105
149,82,-67,-115,108,8,62,146,98,-124,49,-103
149,82,-67,-115,108,8,62,147,101,-121,51,-101
149,83,-66,-116,108,9,62,148,104,-119,52,-101
148,84,-64,-116,106,10,62,149,107,-117,54,-100
150,85,-65,-117,108,10,62,150,109,-114,56,-99
151,87,-64,-119,108,12,63,152,111,-111,58,-97
153,90,-63,-121,108,14,62,154,113,-109,58,-97
154,91,-63,-122,109,14,63,157,116,-105,61,-96
155,92,-63,-123,109,15,63,159,118,-103,62,-95
156,93,-63,-124,110,15,63,161,121,-101,63,-94
156,95,-61,-125,109,17,63,163,125,-98,65,-91
156,96,-60,-126,108,18,63,164,128,-95,66,-90
156,98,-58,-127,107,20,64,166,133,-92,69,-89
158,100,-58,-129,108,21,64,167,136,-89,70,-88
159,103,-56,-131,108,24,65,169,140,-85,73,-85
161,105,-56,-133,109,25,66,172,144,-81,77,-83
162,108,-54,-135,108,27,65,174,147,-78,79,-82
164,110,-54,-137,109,28,65,177,150,-74,81,-80
163,112,-51,-137,107,31,66,180,154,-70,84,-77
160,112,-48,-136,104,32,67,183,158,-66,88,-74
161,113,-48,-137,105,33,67,183,161,-63,90,-73
166,116,-50,-141,108,33,65,183,164,-61,91,-73
168,119,-49,-143,109,35,65,185,168,-57,94,-70
168,121,-47,-144,108,37,65,187,173,-53,97,-68
169,123,-46,-146,108,39,65,188,177,-48,100,-66
170,126,-44,-148,107,41,66,190,180,-44,103,-63
172,130,-42,-151,107,44,65,192,182,-41,105,-62
173,133,-40,-153,107,47,65,193,184,-38,106,-60
174,134,-40,-154,107,47,66,196,189,-33,109,-57
175,136,-39,-155,107,49,66,198,192,-29,112,-55
176,138,-38,-157,107,50,66,199,195,-26,115,-53
177,140,-37,-158,107,52,66,200,198,-22,118,-51
177,142,-35,-159,106,54,65,199,201,-19,120,-50
177,143,-34,-160,106,55,65,200,205,-15,123,-47
178,144,-34,-161,106,55,64,201,207,-12,126,-45
179,147,-32,-163,106,58,65,203,209,-9,128,-43
181,150,-31,-165,106,60,65,204,211,-6,130,-42
183,153,-30,-168,107,62,65,204,213,-3,131,-41
183,155,-28,-169,106,64,66,206,215,-1,134,-39
182,156,-26,-169,104,65,65,206,216,0,135,-38
181,155,-26,-168,104,65,64,204,217,1,136,-37
182,155,-27,-168,105,64,63,203,218,2,138,-36
183,157,-26,-170,105,66,63,201,219,2,139,-35
183,159,-24,-171,104,68,62,199,218,3,140,-34
183,160,-23,-171,103,69,63,198,217,3,141,-33
182,161,-21,-171,102,70,63,196,214,2,140,-33
181,161,-20,-171,101,71,63,194,211,0,139,-34
182,160,-22,-171,102,69,63,191,207,-4,137,-36
181,159,-22,-170,102,69,63,189,203,-7,135,-37
178,157,-21,-167,100,68,63,187,199,-11,133,-39
174,154,-20,-164,97,67,63,184,195,-16,130,-41
171,152,-19,-161,95,67,63,180,191,-21,127,-43
171,149,-22,-160,97,64,62,174,184,-28,123,-45
171,145,-26,-158,99,60,61,168,176,-36,118,-49
170,141,-29,-155,100,56,61,164,168,-44,114,-51
168,138,-30,-153,99,54,60,159,159,-53,108,-56
166,135,-31,-150,99,52,60,155,150,-61,102,-60
164,132,-32,-148,98,50,60,151,141,-70,97,-64
163,127,-36,-145,100,46,59,146,133,-79,91,-68
161,123,-38,-142,100,43,58,142,124,-88,86,-73
159,118,-41,-138,100,39,56,137,115,-95,80,-77
156,113,-43,-134,100,35,56,133,107,-104,75,-81
153,108,-45,-130,99,32,54,127,98,-113,69,-85
151,103,-48,-127,100,28,54,122,91,-120,65,-87
150,99,-51,-124,101,24,52,118,82,-128,60,-91
148,95,-53,-121,101,21,52,115,75,-135,55,-95
146,91,-55,-118,101,18,51,112,67,-143,50,-99
145,88,-57,-116,101,16,51,109,60,-150,45,-103
144,84,-60,-114,102,12,49,105,52,-158,39,-107
142,80,-62,-111,102,9,49,103,46,-164,35,-110
140,77,-63,-108,102,7,47,100,41,-169,32,-113
138,73,-65,-105,102,4,46,96,35,-174,29,-115
136,69,-67,-102,102,1,45,92,30,-179,27,-117
136,66,-70,-101,103,-2,45,90,26,-183,24,-119
136,64,-72,-100,104,-4,44,88,22,-187,21,-121
136,63,-73,-99,105,-5,43,86,17,-191,18,-124
135,61,-74,-98,105,-6,43,84,12,-195,15,-126
132,59,-73,-95,103,-7,44,84,9,-197,13,-127
130,57,-73,-93,102,-8,43,83,6,-200,11,-129
130,55,-75,-92,103,-10,43,82,4,-203,10,-130
132,53,-79,-92,106,-13,42,79,1,-206,8,-131
133,52,-81,-92,107,-14,40,77,-2,-209,6,-133
132,50,-82,-91,107,-16,40,76,-4,-210,4,-134
131,48,-83,-89,107,-17,40,74,-5,-211,3,-135
130,46,-84,-88,107,-19,40,74,-6,-212,3,-135
130,45,-85,-87,108,-20,39,73,-8,-214,1,-137
131,46,-85,-88,108,-19,38,72,-11,-216,-1,-138
131,46,-85,-88,108,-19,38,72,-13,-218,-2,-139
132,46,-86,-89,109,-20,38,72,-14,-219,-2,-140
131,44,-87,-87,109,-21,38,73,-14,-220,-2,-140
131,43,-88,-87,110,-22,37,71,-15,-222,-3,-141
130,42,-88,-86,109,-23,37,71,-15,-222,-4,-141
129,42,-87,-85,108,-22,37,69,-15,-223,-4,-141
129,42,-87,-85,108,-22,37,68,-16,-223,-4,-142
129,41,-88,-85,109,-23,38,69,-16,-222,-4,-141
129,41,-88,-85,109,-23,38,70,-17,-223,-5,-141
128,41,-87,-84,108,-23,38,70,-18,-224,-6,-141
130,42,-88,-86,109,-23,38,70,-20,-225,-6,-141
130,42,-88,-86,109,-23,38,71,-20,-224,-6,-142
130,40,-90,-85,110,-25,39,71,-20,-224,-5,-142
129,40,-89,-84,109,-24,38,70,-21,-225,-6,-143
129,40,-89,-84,109,-24,37,70,-20,-225,-7,-143
129,40,-89,-84,109,-24,37,69,-18,-226,-7,-143
129,40,-89,-84,109,-24,37,69,-18,-225,-6,-143
129,40,-89,-84,109,-24,37,70,-17,-225,-7,-143
130,41,-89,-85,110,-24,37,70,-18,-225,-8,-143
130,41,-89,-85,110,-24,38,71,-18,-225,-7,-143
131,41,-90,-86,111,-24,39,71,-19,-225,-7,-143
129,41,-88,-85,109,-23,39,72,-19,-224,-6,-142
126,40,-86,-83,106,-23,39,73,-19,-224,-6,-142
125,39,-86,-82,106,-23,40,74,-18,-224,-5,-141
128,39,-89,-83,109,-25,38,73,-18,-225,-6,-143
130,39,-91,-84,111,-26,37,71,-19,-226,-7,-144
130,39,-91,-84,111,-26,36,71,-18,-226,-6,-144
130,39,-91,-84,111,-26,36,70,-17,-226,-6,-143
130,40,-90,-85,110,-25,38,71,-17,-225,-6,-143
131,41,-90,-86,111,-24,38,71,-18,-226,-8,-144
131,41,-90,-86,111,-24,38,72,-18,-226,-8,-144
130,40,-90,-85,110,-25,39,74,-18,-225,-7,-143
130,40,-90,-85,110,-25,39,74,-18,-225,-6,-143
129,40,-89,-84,109,-24,39,74,-17,-225,-6,-143
129,39,-90,-84,110,-25,39,73,-17,-225,-6,-143
128,39,-89,-83,109,-25,38,73,-16,-224,-6,-142
128,39,-89,-83,109,-25,37,73,-16,-224,-6,-142
128,40,-88,-84,108,-24,36,72,-16,-224,-6,-143
128,40,-88,-84,108,-24,38,72,-16,-223,-6,-143
128,40,-88,-84,108,-24,39,73,-17,-223,-6,-143
128,40,-88,-84,108,-24,40,73,-17,-222,-7,-143
129,41,-88,-85,109,-23,40,74,-17,-222,-6,-143
129,42,-87,-85,108,-22,40,74,-17,-224,-7,-143
128,41,-87,-84,108,-23,40,75,-16,-223,-6,-142
128,41,-87,-84,108,-23,39,74,-16,-224,-7,-143
127,40,-87,-83,107,-23,39,74,-15,-223,-6,-142
127,40,-87,-83,107,-23,38,74,-15,-223,-5,-142
128,41,-87,-84,108,-23,37,73,-15,-223,-6,-142
129,43,-86,-86,108,-21,38,73,-15,-222,-6,-142
127,43,-84,-85,106,-20,40,74,-14,-221,-5,-141
126,44,-82,-85,104,-19,41,75,-15,-221,-4,-141
128,43,-85,-85,107,-21,40,74,-16,-222,-5,-142
130,43,-87,-86,109,-22,39,74,-17,-223,-6,-142
129,42,-87,-85,108,-22,38,73,-18,-225,-7,-143
127,41,-86,-84,107,-22,37,72,-19,-225,-7,-143
"
		126","
		40","
		-86","
		-83","
		106","
		-23","
		38","
		72","
		-18","
		-224","
		-6","
		-142"
126,40,-86,-83,106,-23,38,73,-18,-224,-6,-142
128,41,-87,-84,108,-23,38,72,-19,-224,-6,-142
129,42,-87,-85,108,-22,39,72,-19,-223,-6,-142
130,44,-86,-87,108,-21,38,72,-19,-223,-7,-142
130,44,-86,-87,108,-21,38,72,-20,-223,-7,-142
130,44,-86,-87,108,-21,38,72,-21,-224,-8,-143
129,43,-86,-86,108,-21,38,72,-20,-225,-8,-142
128,42,-86,-85,107,-22,39,72,-18,-225,-7,-142
127,41,-86,-84,107,-22,38,71,-19,-225,-7,-143
127,40,-87,-83,107,-23,37,71,-20,-225,-6,-143
128,40,-88,-84,108,-24,36,70,-21,-226,-7,-143
129,41,-88,-85,109,-23,37,70,-21,-225,-7,-142
130,42,-88,-86,109,-23,37,69,-22,-225,-8,-142
131,43,-88,-87,110,-22,37,69,-23,-226,-9,-143
131,44,-87,-87,109,-21,38,70,-23,-225,-8,-142
132,44,-88,-88,110,-22,38,70,-23,-225,-8,-142
131,44,-87,-87,109,-21,38,70,-24,-226,-7,-143
129,43,-86,-86,108,-21,38,70,-24,-226,-7,-143
125,41,-84,-83,105,-21,38,70,-24,-226,-7,-143
124,40,-84,-82,104,-22,38,69,-23,-226,-7,-143
127,40,-87,-83,107,-23,38,69,-23,-227,-7,-143
130,40,-90,-85,110,-25,37,68,-24,-227,-8,-143
130,40,-90,-85,110,-25,37,67,-26,-228,-9,-144
129,40,-89,-84,109,-24,37,66,-28,-228,-10,-145
130,41,-89,-85,110,-24,36,67,-29,-229,-10,-145
131,42,-89,-86,110,-23,36,68,-29,-228,-10,-143
130,41,-89,-85,110,-24,36,67,-30,-230,-10,-145
128,39,-89,-83,109,-25,37,67,-30,-229,-9,-144
129,40,-89,-84,109,-24,36,66,-31,-230,-10,-145
130,40,-90,-85,110,-25,36,65,-31,-229,-11,-146
129,39,-90,-84,110,-25,35,65,-30,-230,-11,-146
129,40,-89,-84,109,-24,35,64,-30,-230,-11,-146
129,41,-88,-85,109,-23,36,64,-30,-229,-11,-145
129,42,-87,-85,108,-22,36,64,-31,-230,-12,-146
129,42,-87,-85,108,-22,37,65,-31,-230,-12,-145
130,42,-88,-86,109,-23,38,65,-32,-229,-11,-145
131,42,-89,-86,110,-23,38,65,-31,-229,-11,-144
131,41,-90,-86,111,-24,38,65,-31,-229,-11,-145
130,40,-90,-85,110,-25,37,65,-31,-229,-11,-145
128,38,-90,-83,109,-26,36,64,-32,-229,-11,-146
127,37,-90,-82,109,-26,36,64,-32,-229,-12,-145
128,38,-90,-83,109,-26,35,63,-32,-229,-12,-145
129,40,-89,-84,109,-24,36,63,-32,-228,-12,-144
130,42,-88,-86,109,-23,36,64,-32,-229,-12,-145
131,42,-89,-86,110,-23,37,64,-32,-229,-12,-145
131,41,-90,-86,111,-24,37,63,-33,-230,-13,-147
130,40,-90,-85,110,-25,37,63,-33,-230,-13,-147
129,38,-91,-83,110,-26,37,64,-32,-230,-12,-147
129,37,-92,-83,111,-27,37,63,-32,-231,-13,-147
128,37,-91,-82,110,-27,35,62,-33,-232,-13,-148
127,36,-91,-81,109,-27,34,62,-33,-231,-13,-148
127,36,-91,-81,109,-27,34,61,-34,-232,-14,-148
126,36,-90,-81,108,-27,35,61,-35,-231,-14,-147
126,38,-88,-82,107,-25,36,63,-34,-230,-13,-146
125,39,-86,-82,106,-23,37,63,-35,-230,-13,-145
126,38,-88,-82,107,-25,37,63,-36,-231,-13,-146
128,38,-90,-83,109,-26,36,62,-37,-233,-15,-147
129,38,-91,-83,110,-26,35,62,-36,-233,-14,-148
129,37,-92,-83,111,-27,35,61,-36,-233,-14,-149
129,37,-92,-83,111,-27,35,60,-35,-233,-14,-149
128,37,-91,-82,110,-27,35,60,-35,-232,-14,-149
129,38,-91,-83,110,-26,35,60,-34,-232,-14,-148
129,38,-91,-83,110,-26,36,61,-34,-233,-15,-148
129,38,-91,-83,110,-26,36,61,-35,-233,-15,-148
128,37,-91,-82,110,-27,36,61,-37,-233,-16,-148
128,36,-92,-82,110,-28,36,61,-37,-233,-15,-148
128,36,-92,-82,110,-28,36,61,-36,-234,-15,-148
128,36,-92,-82,110,-28,36,61,-36,-234,-15,-148
128,35,-93,-81,111,-29,35,61,-36,-233,-14,-147
127,35,-92,-81,110,-28,34,60,-36,-233,-15,-148
127,35,-92,-81,110,-28,33,60,-37,-234,-15,-149
127,35,-92,-81,110,-28,33,60,-37,-234,-15,-148
128,37,-91,-82,110,-27,33,59,-38,-234,-15,-148
129,38,-91,-83,110,-26,34,60,-37,-232,-15,-148
130,38,-92,-84,111,-27,34,60,-38,-234,-16,-149
130,37,-93,-83,112,-28,35,61,-37,-233,-15,-148
130,37,-93,-83,112,-28,35,60,-37,-233,-16,-148
128,36,-92,-82,110,-28,36,60,-36,-233,-15,-148
127,36,-91,-81,109,-27,35,59,-36,-233,-15,-149
126,37,-89,-81,108,-26,35,59,-36,-233,-15,-148
126,37,-89,-81,108,-26,35,59,-36,-232,-15,-148
127,37,-90,-82,109,-26,34,59,-36,-232,-15,-148
128,36,-92,-82,110,-28,34,59,-37,-232,-16,-149
129,36,-93,-82,111,-28,34,58,-38,-233,-17,-150
128,36,-92,-82,110,-28,36,59,-38,-232,-16,-149
128,36,-92,-82,110,-28,35,59,-38,-232,-16,-149
128,35,-93,-81,111,-29,35,59,-38,-232,-16,-149
128,35,-93,-81,111,-29,34,59,-38,-232,-16,-149
128,35,-93,-81,111,-29,34,59,-38,-231,-16,-149
129,35,-94,-82,112,-29,34,59,-38,-231,-15,-149
129,35,-94,-82,112,-29,34,58,-39,-231,-16,-149
127,33,-94,-80,111,-30,33,58,-39,-231,-16,-149
126,33,-93,-79,110,-30,33,58,-39,-232,-18,-149
128,36,-92,-82,110,-28,34,58,-40,-232,-17,-150
129,36,-93,-82,111,-28,34,58,-40,-232,-17,-150
128,35,-93,-81,111,-29,35,59,-38,-231,-16,-149
128,35,-93,-81,111,-29,35,59,-38,-231,-16,-149
128,35,-93,-81,111,-29,35,59,-38,-231,-17,-149
128,34,-94,-81,111,-30,34,58,-39,-232,-17,-150
127,33,-94,-80,111,-30,33,58,-38,-231,-16,-150
127,33,-94,-80,111,-30,33,57,-38,-231,-16,-150
127,34,-93,-80,110,-29,34,58,-38,-230,-16,-150
127,35,-92,-81,110,-28,34,58,-38,-230,-16,-150
128,36,-92,-82,110,-28,35,59,-37,-230,-16,-149
129,36,-93,-82,111,-28,35,58,-39,-231,-17,-150
130,36,-94,-83,112,-29,35,58,-39,-231,-18,-150
130,35,-95,-82,113,-30,35,58,-40,-231,-19,-151
128,34,-94,-81,111,-30,35,58,-40,-231,-18,-150
126,32,-94,-79,110,-31,35,58,-40,-230,-17,-149
123,31,-92,-77,108,-30,35,57,-38,-229,-16,-149
123,32,-91,-77,107,-29,35,58,-38,-229,-16,-148
125,33,-92,-79,109,-29,35,57,-39,-229,-17,-149
128,34,-94,-81,111,-30,33,56,-42,-230,-18,-151
129,34,-95,-81,112,-30,35,57,-41,-230,-18,-151
129,34,-95,-81,112,-30,36,58,-40,-229,-17,-150
129,34,-95,-81,112,-30,35,58,-39,-229,-18,-150
129,34,-95,-81,112,-30,34,58,-40,-230,-19,-150
128,33,-95,-80,112,-31,35,58,-39,-230,-18,-150
127,32,-95,-79,111,-31,35,57,-40,-230,-18,-150
127,31,-96,-79,112,-32,35,58,-39,-229,-17,-149
127,33,-94,-80,111,-30,34,57,-39,-230,-18,-149
128,34,-94,-81,111,-30,34,57,-39,-230,-17,-149
129,35,-94,-82,112,-29,35,58,-39,-229,-16,-149
128,35,-93,-81,111,-29,34,58,-39,-229,-17,-149
127,33,-94,-80,111,-30,34,58,-40,-229,-17,-150
127,32,-95,-79,111,-31,33,57,-41,-231,-19,-151
126,32,-94,-79,110,-31,34,58,-41,-231,-18,-150
125,32,-93,-78,109,-30,34,57,-42,-231,-19,-150
125,32,-93,-78,109,-30,33,56,-41,-231,-19,-151
125,32,-93,-78,109,-30,33,56,-40,-231,-19,-151
126,32,-94,-79,110,-31,33,56,-40,-230,-19,-150
127,32,-95,-79,111,-31,33,56,-40,-230,-19,-151
127,33,-94,-80,111,-30,33,57,-40,-230,-18,-151
127,33,-94,-80,111,-30,34,58,-40,-229,-18,-150
127,33,-94,-80,111,-30,34,59,-41,-229,-18,-150
127,33,-94,-80,111,-30,35,59,-42,-229,-18,-150
127,34,-93,-80,110,-29,35,58,-41,-229,-18,-150
127,34,-93,-80,110,-29,34,57,-40,-230,-19,-151
127,32,-95,-79,111,-31,34,56,-41,-230,-20,-151
126,31,-95,-78,111,-32,34,56,-41,-230,-19,-150
125,32,-93,-78,109,-30,35,56,-40,-229,-18,-149
124,33,-91,-78,108,-29,35,57,-40,-229,-17,-149
126,33,-93,-79,110,-30,34,56,-41,-229,-18,-150
128,34,-94,-81,111,-30,34,56,-42,-229,-19,-151
129,34,-95,-81,112,-30,34,57,-42,-230,-19,-151
129,33,-96,-81,113,-31,34,57,-43,-230,-19,-151
128,33,-95,-80,112,-31,34,57,-42,-230,-19,-151
127,33,-94,-80,111,-30,35,58,-41,-230,-19,-151
126,32,-94,-79,110,-31,35,57,-41,-230,-18,-150
125,31,-94,-78,110,-31,33,55,-42,-231,-19,-151
125,31,-94,-78,110,-31,33,55,-42,-230,-19,-151
126,32,-94,-79,110,-31,34,56,-41,-230,-19,-150
127,33,-94,-80,111,-30,34,57,-41,-231,-19,-152
128,34,-94,-81,111,-30,34,57,-42,-232,-20,-153
128,34,-94,-81,111,-30,34,57,-41,-232,-20,-152
128,34,-94,-81,111,-30,34,57,-42,-232,-20,-151
127,34,-93,-80,110,-29,35,58,-41,-231,-19,-150
127,34,-93,-80,110,-29,35,57,-42,-231,-19,-150
127,34,-93,-80,110,-29,35,57,-42,-232,-19,-150
127,33,-94,-80,111,-30,35,56,-43,-232,-19,-150
127,33,-94,-80,111,-30,34,56,-43,-232,-19,-150
127,33,-94,-80,111,-30,34,56,-44,-232,-19,-150
127,33,-94,-80,111,-30,34,56,-43,-232,-19,-150
127,33,-94,-80,111,-30,34,56,-42,-232,-19,-151
127,33,-94,-80,111,-30,34,57,-42,-232,-20,-151
128,33,-95,-80,112,-31,34,57,-42,-233,-20,-151
127,33,-94,-80,111,-30,34,56,-43,-234,-21,-152
126,33,-93,-79,110,-30,34,55,-44,-235,-22,-153
124,33,-91,-78,108,-29,35,55,-43,-234,-21,-152
122,33,-89,-77,106,-28,36,57,-41,-233,-20,-150
123,33,-90,-78,107,-28,35,56,-41,-234,-20,-151
125,33,-92,-79,109,-29,35,56,-41,-233,-20,-151
127,34,-93,-80,110,-29,35,55,-43,-234,-21,-152
128,34,-94,-81,111,-30,34,55,-44,-234,-21,-153
128,35,-93,-81,111,-29,35,56,-43,-234,-20,-153
128,35,-93,-81,111,-29,35,57,-43,-234,-20,-152
127,35,-92,-81,110,-28,35,57,-43,-234,-20,-152
127,35,-92,-81,110,-28,35,56,-43,-235,-21,-152
127,35,-92,-81,110,-28,34,55,-44,-236,-21,-152
127,34,-93,-80,110,-29,34,56,-43,-236,-21,-151
127,34,-93,-80,110,-29,34,55,-43,-236,-21,-152
126,34,-92,-80,109,-29,34,55,-43,-236,-21,-152
126,34,-92,-80,109,-29,34,55,-43,-235,-21,-153
126,33,-93,-79,110,-30,34,55,-44,-236,-21,-153
128,34,-94,-81,111,-30,34,54,-45,-237,-22,-153
129,35,-94,-82,112,-29,35,56,-45,-236,-21,-152
127,34,-93,-80,110,-29,36,56,-44,-235,-20,-152
126,33,-93,-79,110,-30,35,55,-44,-236,-20,-153
126,34,-92,-80,109,-29,35,56,-44,-236,-21,-153
127,35,-92,-81,110,-28,34,55,-44,-236,-22,-153
127,34,-93,-80,110,-29,36,56,-43,-236,-21,-152
127,34,-93,-80,110,-29,35,55,-43,-236,-21,-153
127,34,-93,-80,110,-29,35,55,-44,-236,-21,-153
127,35,-92,-81,110,-28,34,55,-45,-237,-22,-153
128,36,-92,-82,110,-28,35,56,-44,-237,-22,-153
128,35,-93,-81,111,-29,35,57,-44,-237,-22,-153
128,34,-94,-81,111,-30,35,56,-45,-237,-22,-153
127,33,-94,-80,111,-30,35,54,-45,-238,-22,-154
124,32,-92,-78,108,-30,35,54,-44,-238,-23,-153
122,33,-89,-77,106,-28,36,56,-43,-236,-21,-152
123,33,-90,-78,107,-28,35,55,-43,-236,-22,-152
126,33,-93,-79,110,-30,35,55,-44,-236,-22,-153
128,35,-93,-81,111,-29,35,55,-45,-237,-22,-154
129,36,-93,-82,111,-28,34,54,-46,-238,-22,-154
128,36,-92,-82,110,-28,35,55,-45,-237,-22,-154
127,35,-92,-81,110,-28,35,54,-46,-237,-23,-155
127,35,-92,-81,110,-28,35,55,-45,-237,-22,-154
127,36,-91,-81,109,-27,36,56,-44,-237,-22,-153
127,35,-92,-81,110,-28,35,55,-45,-238,-23,-153
126,34,-92,-80,109,-29,35,56,-44,-237,-23,-153
126,33,-93,-79,110,-30,35,55,-44,-238,-23,-152
127,34,-93,-80,110,-29,35,55,-43,-237,-22,-152
128,35,-93,-81,111,-29,35,55,-44,-237,-22,-153
128,35,-93,-81,111,-29,36,56,-44,-237,-21,-153
127,35,-92,-81,110,-28,36,56,-45,-238,-21,-153
127,35,-92,-81,110,-28,36,56,-46,-238,-22,-154
126,36,-90,-81,108,-27,36,56,-46,-238,-23,-154
125,35,-90,-80,108,-27,36,56,-46,-237,-23,-154
124,34,-90,-79,107,-28,36,56,-46,-237,-22,-153
125,34,-91,-79,108,-28,34,55,-47,-238,-23,-154
125,34,-91,-79,108,-28,34,55,-46,-238,-23,-153
125,34,-91,-79,108,-28,33,54,-46,-239,-23,-154
125,34,-91,-79,108,-28,32,53,-46,-239,-23,-155
126,34,-92,-80,109,-29,33,54,-46,-239,-23,-155
127,35,-92,-81,110,-28,34,54,-47,-240,-24,-155
127,35,-92,-81,110,-28,35,55,-46,-239,-24,-155
127,35,-92,-81,110,-28,35,55,-46,-239,-24,-155
127,35,-92,-81,110,-28,34,54,-46,-239,-24,-155
126,34,-92,-80,109,-29,35,55,-45,-237,-23,-154
126,34,-92,-80,109,-29,35,55,-45,-237,-23,-154
125,34,-91,-79,108,-28,35,55,-46,-237,-22,-154
123,35,-88,-79,106,-26,36,56,-46,-236,-22,-153
123,35,-88,-79,106,-26,36,56,-46,-236,-22,-153
125,35,-90,-80,108,-27,36,55,-46,-237,-23,-154
127,34,-93,-80,110,-29,36,55,-46,-238,-23,-154
126,34,-92,-80,109,-29,35,55,-46,-239,-24,-155
125,33,-92,-79,109,-29,35,56,-46,-238,-24,-154
126,34,-92,-80,109,-29,35,55,-47,-239,-24,-155
126,34,-92,-80,109,-29,35,55,-46,-239,-23,-155
126,34,-92,-80,109,-29,34,55,-46,-238,-23,-154
126,34,-92,-80,109,-29,35,55,-46,-238,-23,-154
126,34,-92,-80,109,-29,35,55,-46,-238,-23,-154
126,34,-92,-80,109,-29,36,55,-46,-238,-22,-153
126,35,-91,-80,109,-28,36,55,-46,-238,-23,-153
126,35,-91,-80,109,-28,36,55,-46,-238,-23,-153
127,35,-92,-81,110,-28,35,54,-46,-239,-24,-154
127,35,-92,-81,110,-28,34,54,-47,-239,-24,-154
126,35,-91,-80,109,-28,34,55,-47,-239,-23,-153
125,34,-91,-79,108,-28,34,55,-48,-239,-23,-153
126,34,-92,-80,109,-29,34,55,-47,-238,-23,-153
127,34,-93,-80,110,-29,35,55,-46,-238,-23,-153
127,35,-92,-81,110,-28,34,54,-46,-238,-23,-154
128,36,-92,-82,110,-28,35,54,-47,-238,-23,-153
129,36,-93,-82,111,-28,34,54,-48,-239,-24,-154
129,36,-93,-82,111,-28,34,54,-49,-239,-25,-154
129,36,-93,-82,111,-28,34,54,-49,-240,-25,-154
129,36,-93,-82,111,-28,33,53,-49,-240,-25,-155
128,36,-92,-82,110,-28,35,54,-48,-239,-24,-155
126,35,-91,-80,109,-28,35,54,-47,-237,-23,-155
123,34,-89,-78,106,-27,35,55,-46,-237,-23,-154
123,34,-89,-78,106,-27,35,55,-46,-238,-23,-154
126,35,-91,-80,109,-28,34,54,-47,-239,-23,-154
128,35,-93,-81,111,-29,34,54,-47,-240,-24,-155
128,35,-93,-81,111,-29,34,54,-48,-241,-24,-155
128,35,-93,-81,111,-29,35,54,-48,-241,-24,-154
128,36,-92,-82,110,-28,36,55,-48,-240,-24,-154
128,36,-92,-82,110,-28,36,56,-47,-240,-24,-154
128,35,-93,-81,111,-29,35,55,-48,-241,-25,-154
127,34,-93,-80,110,-29,35,54,-48,-241,-24,-154
125,34,-91,-79,108,-28,34,54,-49,-241,-25,-155
125,34,-91,-79,108,-28,33,54,-49,-241,-25,-155
126,34,-92,-80,109,-29,34,54,-49,-241,-24,-155
128,35,-93,-81,111,-29,33,53,-49,-241,-25,-155
128,36,-92,-82,110,-28,34,54,-49,-241,-25,-155
127,36,-91,-81,109,-27,34,54,-49,-242,-25,-155
127,36,-91,-81,109,-27,34,54,-49,-242,-25,-155
127,36,-91,-81,109,-27,34,54,-50,-242,-25,-155
126,36,-90,-81,108,-27,33,53,-50,-242,-26,-156
126,35,-91,-80,109,-28,34,53,-49,-241,-25,-155
126,35,-91,-80,109,-28,35,54,-48,-241,-24,-154
127,36,-91,-81,109,-27,35,54,-48,-242,-25,-154
127,37,-90,-82,109,-26,35,54,-48,-241,-24,-153
128,38,-90,-83,109,-26,34,53,-49,-242,-25,-154
128,39,-89,-83,109,-25,34,54,-48,-242,-25,-154
128,39,-89,-83,109,-25,34,54,-49,-242,-25,-154
128,39,-89,-83,109,-25,33,53,-50,-243,-26,-155
128,38,-90,-83,109,-26,32,52,-51,-244,-26,-156
126,37,-89,-81,108,-26,32,52,-51,-244,-26,-156
125,35,-90,-80,108,-27,32,51,-50,-244,-26,-156
127,35,-92,-81,110,-28,31,51,-51,-245,-27,-157
128,35,-93,-81,111,-29,32,51,-50,-244,-27,-156
128,35,-93,-81,111,-29,32,52,-50,-244,-26,-156
126,35,-91,-80,109,-28,34,54,-49,-242,-25,-154
125,37,-88,-81,107,-25,36,56,-48,-242,-25,-154
128,39,-89,-83,109,-25,38,57,-48,-241,-24,-154
132,40,-92,-86,112,-26,38,57,-49,-242,-25,-155
133,39,-94,-86,114,-27,38,58,-49,-242,-26,-155
131,35,-96,-83,114,-30,39,59,-47,-241,-25,-155
130,34,-96,-82,113,-31,39,60,-46,-241,-25,-156
"
		132","
		35","
		-97","
		-83","
		115","
		-31","
		38","
		61","
		-45","
		-241","
		-24","
		-155"
133,36,-97,-84,115,-30,38,61,-44,-240,-24,-154
134,37,-97,-85,116,-30,38,61,-44,-241,-24,-154
135,37,-98,-86,117,-30,38,62,-44,-240,-23,-154
137,38,-99,-87,118,-30,38,62,-44,-240,-24,-153
137,40,-97,-88,117,-28,38,61,-44,-240,-24,-153
137,41,-96,-89,117,-27,38,61,-44,-238,-23,-153
136,40,-96,-88,116,-28,38,62,-44,-239,-23,-152
135,39,-96,-87,116,-28,37,61,-45,-240,-24,-153
135,38,-97,-86,116,-29,39,64,-42,-238,-23,-153
136,39,-97,-87,117,-29,40,64,-42,-238,-23,-153
137,39,-98,-88,118,-29,41,65,-42,-239,-22,-152
136,39,-97,-87,117,-29,40,65,-42,-240,-23,-152
136,40,-96,-88,116,-28,40,64,-42,-240,-23,-153
138,41,-97,-89,118,-28,40,64,-42,-240,-23,-152
139,42,-97,-90,118,-27,40,65,-43,-239,-23,-152
139,42,-97,-90,118,-27,40,65,-43,-239,-23,-153
137,41,-96,-89,117,-27,41,65,-43,-238,-23,-154
135,41,-94,-88,115,-26,41,65,-41,-238,-22,-153
134,40,-94,-87,114,-27,40,64,-41,-238,-23,-153
135,39,-96,-87,116,-28,37,61,-43,-240,-24,-154
137,38,-99,-87,118,-30,33,57,-45,-241,-24,-154
138,39,-99,-88,119,-30,29,54,-47,-243,-25,-154
139,40,-99,-89,119,-29,28,53,-48,-243,-25,-154
139,41,-98,-90,119,-28,28,52,-50,-243,-26,-156
139,40,-99,-89,119,-29,29,53,-50,-242,-25,-155
139,40,-99,-89,119,-29,29,53,-50,-243,-26,-155
139,39,-100,-89,120,-30,29,53,-51,-243,-26,-155
139,39,-100,-89,120,-30,29,53,-51,-243,-25,-155
139,39,-100,-89,120,-30,29,54,-50,-242,-25,-155
139,39,-100,-89,120,-30,29,54,-49,-242,-25,-154
138,39,-99,-88,119,-30,30,56,-47,-241,-24,-154
139,40,-99,-89,119,-29,32,57,-46,-240,-23,-153
139,40,-99,-89,119,-29,32,57,-47,-240,-24,-153
139,40,-99,-89,119,-29,32,55,-49,-241,-25,-154
138,40,-98,-89,118,-29,32,54,-50,-242,-26,-155
138,40,-98,-89,118,-29,31,53,-51,-243,-26,-154
137,40,-97,-88,117,-28,29,52,-52,-244,-27,-154
135,39,-96,-87,116,-28,28,52,-53,-246,-28,-156
134,38,-96,-86,115,-29,29,51,-53,-246,-29,-157
132,37,-95,-84,114,-29,30,52,-53,-246,-28,-157
130,37,-93,-83,112,-28,31,52,-52,-246,-28,-157
127,36,-91,-81,109,-27,32,53,-52,-246,-28,-157
127,36,-91,-81,109,-27,33,52,-52,-246,-28,-157
128,38,-90,-83,109,-26,34,52,-52,-246,-28,-157
130,40,-90,-85,110,-25,33,52,-53,-247,-28,-157
130,40,-90,-85,110,-25,33,51,-54,-247,-29,-157
130,39,-91,-84,111,-26,33,51,-54,-247,-29,-157
129,38,-91,-83,110,-26,33,52,-53,-247,-27,-156
126,37,-89,-81,108,-26,32,52,-52,-247,-27,-156
124,36,-88,-80,106,-26,32,52,-52,-246,-27,-155
125,37,-88,-81,107,-25,32,52,-52,-246,-27,-155
129,38,-91,-83,110,-26,32,51,-53,-246,-27,-155
130,38,-92,-84,111,-27,31,50,-54,-248,-28,-157
131,39,-92,-85,112,-26,31,50,-54,-248,-28,-157
130,39,-91,-84,111,-26,32,50,-54,-247,-28,-157
130,39,-91,-84,111,-26,32,51,-53,-247,-28,-157
129,39,-90,-84,110,-25,32,50,-53,-248,-29,-158
129,38,-91,-83,110,-26,32,51,-53,-247,-28,-157
128,37,-91,-82,110,-27,31,50,-53,-248,-29,-158
127,37,-90,-82,109,-26,31,51,-53,-247,-28,-156
128,37,-91,-82,110,-27,31,51,-53,-247,-28,-156
128,38,-90,-83,109,-26,32,51,-52,-247,-28,-156
128,38,-90,-83,109,-26,32,51,-52,-247,-28,-157
127,39,-88,-83,108,-24,32,51,-53,-248,-28,-157
127,39,-88,-83,108,-24,33,51,-52,-247,-28,-157
128,40,-88,-84,108,-24,33,51,-53,-248,-28,-158
128,41,-87,-84,108,-23,34,53,-52,-247,-28,-158
128,40,-88,-84,108,-24,35,54,-51,-247,-29,-158
127,38,-89,-82,108,-25,36,56,-50,-247,-29,-158
125,35,-90,-80,108,-27,38,59,-48,-247,-30,-159
123,33,-90,-78,107,-28,40,62,-46,-248,-31,-161
123,33,-90,-78,107,-28,45,68,-41,-247,-32,-162
124,34,-90,-79,107,-28,49,74,-36,-246,-33,-163
125,35,-90,-80,108,-27,52,79,-31,-246,-35,-164
125,36,-89,-80,107,-26,55,82,-24,-243,-34,-163
126,37,-89,-81,108,-26,55,83,-18,-237,-32,-162
128,39,-89,-83,109,-25,54,85,-10,-229,-27,-160
131,41,-90,-86,111,-24,54,89,-1,-220,-23,-157
138,43,-95,-90,117,-26,54,97,10,-208,-16,-153
146,45,-101,-95,124,-28,58,110,25,-194,-7,-148
151,48,-103,-99,127,-27,66,131,46,-177,2,-143
153,56,-97,-104,125,-20,77,154,75,-152,16,-134
158,69,-89,-113,124,-10,81,169,109,-119,36,-120
170,89,-81,-129,126,4,72,166,138,-81,61,-101
184,116,-68,-150,126,24,51,146,160,-37,93,-77
197,148,-49,-172,123,50,19,109,180,13,132,-47
209,183,-26,-196,118,79,-23,61,199,69,175,-12
222,216,-6,-219,114,105,-70,8,213,129,218,20
231,240,9,-235,111,125,-110,-40,228,188,255,46
234,252,18,-243,108,135,-135,-83,248,238,279,60
229,254,25,-241,102,140,-148,-121,268,274,292,65
212,252,40,-232,86,146,-149,-154,278,294,295,66
191,242,51,-216,70,147,-144,-186,265,287,285,58
173,222,49,-197,62,136,-138,-209,226,245,259,40
158,190,32,-174,63,111,-135,-219,153,155,212,9
140,153,13,-146,64,83,-124,-209,57,29,153,-28
117,119,2,-118,58,61,-103,-188,-42,-100,92,-66
94,92,-2,-93,48,45,-81,-168,-120,-205,40,-99
81,70,-11,-75,46,30,-67,-153,-170,-275,0,-126
76,57,-19,-66,48,19,-66,-146,-196,-311,-26,-143
76,49,-27,-62,52,11,-73,-141,-203,-321,-40,-153
80,43,-37,-61,59,3,-79,-134,-200,-321,-48,-162
88,37,-51,-62,70,-7,-81,-122,-188,-315,-51,-167
97,35,-62,-66,80,-13,-84,-108,-172,-306,-52,-170
104,32,-72,-68,88,-20,-79,-88,-153,-295,-50,-171
110,27,-83,-68,97,-28,-67,-64,-134,-287,-48,-172
114,22,-92,-68,103,-35,-54,-41,-118,-280,-47,-173
118,18,-100,-68,109,-41,-43,-23,-106,-274,-45,-174
119,14,-105,-66,112,-45,-31,-8,-97,-270,-44,-173
120,11,-109,-65,115,-49,-15,8,-84,-264,-41,-172
121,13,-108,-67,115,-47,0,26,-69,-257,-37,-169
123,20,-103,-71,113,-41,13,41,-55,-248,-31,-164
125,29,-96,-77,111,-33,22,54,-43,-240,-26,-160
129,37,-92,-83,111,-27,30,65,-32,-232,-21,-156
132,45,-87,-88,110,-21,35,73,-25,-228,-17,-153
132,51,-81,-91,107,-15,39,78,-19,-225,-14,-150
132,56,-76,-94,104,-10,42,81,-15,-221,-12,-146
130,58,-72,-94,101,-7,43,83,-12,-220,-10,-144
129,57,-72,-93,101,-7,43,84,-12,-221,-10,-145
128,57,-71,-92,100,-7,45,86,-12,-222,-10,-146
129,57,-72,-93,101,-7,45,85,-12,-223,-11,-147
130,56,-74,-93,102,-9,46,86,-10,-222,-11,-147
131,56,-75,-93,103,-9,47,87,-9,-222,-10,-147
131,57,-74,-94,103,-8,48,88,-8,-221,-10,-146
132,57,-75,-94,104,-9,48,89,-8,-220,-11,-146
132,58,-74,-95,103,-8,48,90,-8,-220,-11,-146
132,58,-74,-95,103,-8,48,92,-8,-220,-11,-146
132,58,-74,-95,103,-8,48,94,-7,-219,-10,-146
131,57,-74,-94,103,-8,50,96,-5,-219,-9,-145
132,56,-76,-94,104,-10,50,95,-4,-220,-9,-146
132,57,-75,-94,104,-9,50,94,-3,-219,-9,-146
133,58,-75,-95,104,-8,50,94,-1,-217,-8,-144
133,59,-74,-96,104,-7,49,94,0,-217,-8,-145
133,60,-73,-96,103,-6,51,96,1,-215,-7,-144
133,61,-72,-97,103,-5,52,97,2,-213,-6,-142
134,62,-72,-98,103,-5,52,98,2,-214,-7,-143
134,62,-72,-98,103,-5,51,99,2,-214,-7,-143
133,62,-71,-97,102,-4,51,100,2,-215,-7,-144
132,61,-71,-96,102,-5,51,101,3,-214,-6,-143
133,62,-71,-97,102,-4,51,100,3,-214,-7,-145
134,62,-72,-98,103,-5,52,101,5,-212,-5,-143
132,63,-69,-97,101,-3,53,102,7,-210,-4,-142
132,63,-69,-97,101,-3,54,103,10,-208,-3,-140
134,66,-68,-100,101,-1,55,103,11,-207,-2,-140
137,67,-70,-102,104,-1,52,102,9,-207,-3,-140
137,67,-70,-102,104,-1,51,102,9,-207,-4,-141
137,67,-70,-102,104,-1,52,104,9,-208,-4,-141
136,66,-70,-101,103,-2,54,106,11,-206,-2,-140
136,65,-71,-100,104,-3,53,106,12,-205,-2,-140
135,65,-70,-100,103,-2,54,107,14,-204,-1,-140
136,65,-71,-100,104,-3,54,106,15,-204,-1,-140
136,65,-71,-100,104,-3,54,106,17,-203,0,-139
137,66,-71,-101,104,-2,55,107,19,-201,1,-138
138,67,-71,-102,105,-2,55,107,20,-199,1,-137
139,69,-70,-104,105,0,55,108,21,-198,1,-136
138,70,-68,-104,103,1,56,110,21,-197,2,-136
137,70,-67,-103,102,2,55,110,21,-197,2,-137
136,69,-67,-102,102,1,55,111,23,-196,3,-137
136,68,-68,-102,102,0,54,112,24,-195,3,-136
136,68,-68,-102,102,0,55,112,25,-195,4,-136
137,68,-69,-102,103,0,56,113,27,-194,5,-135
137,69,-68,-103,103,1,57,113,29,-192,6,-134
138,70,-68,-104,103,1,57,114,30,-191,7,-134
139,72,-67,-105,103,3,57,114,31,-191,7,-134
140,73,-67,-106,104,3,57,114,32,-189,7,-133
141,73,-68,-107,105,3,57,116,33,-187,8,-132
142,75,-67,-108,105,4,57,117,34,-186,9,-132
142,76,-66,-109,104,5,57,119,35,-185,10,-132
140,75,-65,-107,103,5,58,120,37,-184,11,-131
138,74,-64,-106,101,5,58,121,39,-183,12,-131
137,74,-63,-105,100,6,57,121,40,-183,12,-131
139,76,-63,-107,101,7,58,122,42,-181,13,-131
142,78,-64,-110,103,7,58,121,43,-181,12,-131
144,79,-65,-111,105,7,58,121,45,-179,13,-130
143,79,-64,-111,104,8,58,123,46,-177,14,-129
142,80,-62,-111,102,9,58,125,48,-175,15,-127
142,80,-62,-111,102,9,59,127,49,-174,15,-127
141,80,-61,-110,101,10,59,128,51,-173,17,-127
141,79,-62,-110,102,9,58,129,52,-173,17,-127
141,80,-61,-110,101,10,59,131,54,-172,18,-126
143,81,-62,-112,103,10,59,131,56,-170,19,-126
145,82,-63,-113,104,10,59,132,58,-168,21,-125
146,83,-63,-114,105,10,59,133,60,-165,22,-123
147,85,-62,-116,105,12,60,134,63,-163,23,-122
147,86,-61,-116,104,13,61,136,65,-160,24,-119
147,87,-60,-117,104,14,60,137,65,-159,24,-120
146,87,-59,-116,103,14,61,140,66,-157,26,-119
146,87,-59,-116,103,14,60,142,69,-155,27,-118
146,87,-59,-116,103,14,61,144,72,-153,30,-117
147,88,-59,-117,103,15,61,145,74,-151,31,-117
148,90,-58,-119,103,16,61,146,77,-149,31,-116
149,92,-57,-120,103,18,61,147,80,-147,33,-116
150,93,-57,-121,104,18,61,148,82,-145,34,-115
150,94,-56,-122,103,19,62,151,86,-141,36,-113
150,95,-55,-122,103,20,63,153,89,-138,38,-111
151,97,-54,-124,103,22,63,156,91,-136,40,-110
152,98,-54,-125,103,22,63,158,93,-134,40,-109
153,99,-54,-126,104,23,63,160,95,-131,41,-108
153,100,-53,-126,103,24,63,162,99,-128,44,-106
153,101,-52,-127,103,25,64,165,102,-125,47,-104
153,103,-50,-128,102,27,64,167,106,-122,49,-104
153,105,-48,-129,101,29,65,169,110,-117,51,-102
157,108,-49,-132,103,30,65,170,113,-113,53,-101
161,111,-50,-136,106,31,65,172,116,-110,55,-99
163,113,-50,-138,107,32,64,173,119,-107,56,-98
163,114,-49,-138,106,33,64,177,122,-103,58,-96
163,115,-48,-139,106,34,64,180,125,-99,60,-94
163,117,-46,-140,105,36,64,182,129,-96,63,-93
163,119,-44,-141,104,38,64,185,133,-93,65,-92
164,121,-43,-142,104,39,64,187,136,-90,67,-91
165,124,-41,-144,103,42,65,189,141,-85,70,-88
167,126,-41,-146,104,43,65,191,146,-81,73,-86
168,129,-39,-148,104,45,65,192,149,-77,75,-85
170,131,-39,-150,105,46,65,193,153,-73,78,-83
171,134,-37,-152,104,49,66,197,157,-67,82,-80
172,136,-36,-154,104,50,66,200,160,-63,85,-77
173,138,-35,-155,104,52,65,202,163,-59,88,-75
173,140,-33,-156,103,54,65,203,166,-55,90,-73
173,142,-31,-157,102,56,65,205,169,-52,92,-71
174,144,-30,-159,102,57,65,207,172,-48,94,-70
176,146,-30,-161,103,58,65,208,176,-44,97,-69
177,148,-29,-162,103,60,65,209,180,-40,100,-66
179,151,-28,-165,104,62,65,209,183,-36,102,-65
181,153,-28,-167,105,63,65,211,187,-31,105,-62
182,155,-27,-168,105,64,64,213,190,-27,107,-60
182,157,-25,-169,104,66,63,214,192,-25,109,-58
182,159,-23,-170,103,68,63,216,194,-22,112,-56
182,160,-22,-171,102,69,63,216,196,-19,114,-55
183,162,-21,-172,102,71,62,216,198,-17,116,-53
184,163,-21,-173,103,71,63,217,200,-14,119,-51
185,165,-20,-175,103,73,62,216,202,-11,121,-50
186,166,-20,-176,103,73,62,214,203,-9,122,-49
186,168,-18,-177,102,75,61,212,204,-8,123,-49
184,168,-16,-176,100,76,62,212,205,-6,125,-47
182,168,-14,-175,98,77,63,211,206,-4,126,-46
181,169,-12,-175,97,79,63,209,204,-4,126,-45
182,169,-13,-175,98,78,61,205,200,-7,124,-47
182,168,-14,-175,98,77,61,203,197,-9,124,-47
180,167,-13,-173,97,77,61,199,193,-12,122,-49
179,165,-14,-172,97,76,62,196,190,-15,121,-50
179,164,-15,-171,97,75,61,191,185,-20,117,-51
178,162,-16,-170,97,73,60,186,180,-25,114,-54
177,159,-18,-168,98,71,59,181,173,-32,110,-57
176,157,-19,-166,98,69,58,176,166,-39,106,-60
174,155,-19,-164,97,68,58,172,160,-45,103,-62
172,151,-21,-161,97,65,58,167,152,-53,98,-65
169,146,-23,-157,96,62,58,162,143,-61,92,-69
167,143,-24,-155,96,60,57,158,135,-69,88,-73
165,139,-26,-152,96,57,56,153,126,-77,83,-77
161,134,-27,-147,94,54,56,147,116,-87,77,-81
158,129,-29,-143,94,50,55,141,108,-96,72,-86
157,125,-32,-141,95,47,53,135,99,-104,65,-90
156,121,-35,-138,96,43,53,131,91,-112,60,-92
155,118,-37,-136,96,41,52,125,82,-121,55,-96
153,114,-39,-133,96,38,51,121,74,-129,50,-99
150,109,-41,-129,96,34,51,117,66,-136,46,-102
148,104,-44,-126,96,30,50,113,57,-146,40,-106
146,100,-46,-123,96,27,48,109,50,-153,36,-110
145,96,-49,-120,97,24,47,105,42,-160,31,-113
143,92,-51,-117,97,21,45,101,34,-168,27,-117
142,88,-54,-115,98,17,44,97,29,-174,24,-120
141,85,-56,-113,99,15,43,93,23,-178,19,-123
140,83,-57,-111,99,13,42,90,18,-184,15,-126
139,80,-59,-109,99,11,41,87,12,-189,11,-128
138,78,-60,-108,99,9,41,84,8,-194,8,-130
135,75,-60,-105,98,8,41,83,5,-197,7,-131
133,72,-61,-102,97,6,41,82,1,-201,4,-133
130,69,-61,-99,96,4,41,82,-3,-204,2,-135
131,66,-65,-98,98,1,39,79,-8,-208,-1,-138
132,65,-67,-98,100,-1,39,76,-12,-212,-4,-140
133,64,-69,-98,101,-2,39,75,-14,-214,-5,-141
133,63,-70,-98,102,-3,38,73,-16,-216,-7,-142
133,61,-72,-97,103,-5,38,72,-18,-218,-8,-143
132,60,-72,-96,102,-6,37,69,-21,-221,-10,-144
131,58,-73,-94,102,-7,37,69,-24,-222,-11,-145
130,57,-73,-93,102,-8,37,68,-26,-224,-12,-146
129,55,-74,-92,102,-9,36,67,-27,-226,-13,-146
129,53,-76,-91,103,-11,36,68,-28,-227,-13,-146
129,52,-77,-90,103,-12,35,68,-29,-228,-15,-147
129,52,-77,-90,103,-12,35,67,-30,-230,-16,-148
129,51,-78,-90,104,-13,35,65,-31,-232,-17,-149
129,51,-78,-90,104,-13,35,64,-32,-233,-17,-149
129,51,-78,-90,104,-13,35,63,-33,-234,-18,-150
129,51,-78,-90,104,-13,35,63,-33,-234,-18,-149
130,51,-79,-90,105,-14,36,63,-33,-233,-18,-149
129,51,-78,-90,104,-13,36,64,-34,-233,-19,-150
129,50,-79,-89,104,-14,36,64,-34,-234,-19,-150
128,49,-79,-88,104,-15,34,63,-36,-236,-21,-150
128,49,-79,-88,104,-15,33,63,-37,-237,-21,-151
127,48,-79,-87,103,-15,34,64,-36,-236,-20,-150
127,48,-79,-87,103,-15,34,63,-36,-236,-20,-151
127,48,-79,-87,103,-15,34,63,-36,-236,-20,-151
128,48,-80,-88,104,-16,35,63,-36,-236,-20,-151
129,49,-80,-89,105,-15,35,63,-36,-236,-21,-151
130,49,-81,-89,106,-16,35,64,-35,-235,-21,-150
130,50,-80,-90,105,-15,35,63,-37,-236,-22,-151
128,50,-78,-89,103,-14,36,64,-37,-236,-21,-151
126,49,-77,-87,102,-14,36,65,-37,-236,-21,-150
124,48,-76,-86,100,-14,36,65,-37,-236,-21,-150
"
		125","
		47","
		-78","
		-86","
		102","
		-15","
		35","
		65","
		-37","
		-236","
		-21","
		-151"
127,46,-81,-86,104,-17,34,65,-36,-237,-21,-151
128,46,-82,-87,105,-18,34,64,-37,-238,-22,-152
129,47,-82,-88,106,-17,35,64,-36,-237,-22,-151
129,48,-81,-88,105,-16,35,64,-36,-237,-22,-151
130,49,-81,-89,106,-16,36,65,-35,-235,-21,-150
130,49,-81,-89,106,-16,36,66,-35,-235,-20,-150
129,49,-80,-89,105,-15,36,66,-35,-235,-21,-150
129,49,-80,-89,105,-15,35,66,-36,-236,-21,-150
127,49,-78,-88,103,-14,35,66,-36,-237,-21,-150
126,48,-78,-87,102,-15,35,66,-36,-238,-22,-151
126,48,-78,-87,102,-15,35,66,-36,-238,-21,-151
127,48,-79,-87,103,-15,35,66,-35,-237,-21,-151
128,49,-79,-88,104,-15,35,65,-36,-237,-21,-151
128,50,-78,-89,103,-14,36,66,-35,-236,-21,-150
128,51,-77,-89,103,-13,37,66,-35,-236,-21,-149
129,51,-78,-90,104,-13,37,66,-36,-236,-22,-150
128,51,-77,-89,103,-13,38,67,-35,-236,-21,-149
127,50,-77,-88,102,-13,37,67,-36,-237,-21,-150
125,49,-76,-87,101,-13,37,68,-36,-238,-21,-150
126,48,-78,-87,102,-15,36,67,-36,-239,-22,-150
127,48,-79,-87,103,-15,36,67,-35,-238,-22,-150
128,48,-80,-88,104,-16,37,67,-34,-237,-21,-149
128,49,-79,-88,104,-15,35,66,-35,-238,-22,-149
129,49,-80,-89,105,-15,35,66,-35,-238,-22,-149
128,50,-78,-89,103,-14,36,66,-35,-237,-22,-149
127,50,-77,-88,102,-13,37,67,-35,-237,-21,-149
126,50,-76,-88,101,-13,38,69,-34,-236,-20,-148
127,49,-78,-88,103,-14,38,69,-35,-237,-20,-148
128,49,-79,-88,104,-15,36,67,-36,-238,-22,-149
128,50,-78,-89,103,-14,36,67,-36,-239,-22,-149
128,50,-78,-89,103,-14,35,66,-36,-240,-23,-150
127,50,-77,-88,102,-13,35,66,-36,-240,-23,-150
128,50,-78,-89,103,-14,36,66,-36,-240,-23,-149
128,51,-77,-89,103,-13,36,66,-35,-240,-22,-149
129,51,-78,-90,104,-13,36,65,-36,-240,-22,-149
129,52,-77,-90,103,-12,37,66,-37,-239,-21,-148
129,53,-76,-91,103,-11,37,66,-37,-239,-21,-148
128,53,-75,-90,102,-11,37,67,-38,-240,-22,-148
127,51,-76,-89,102,-12,38,67,-38,-240,-22,-148
127,50,-77,-88,102,-13,37,66,-39,-241,-22,-148
127,50,-77,-88,102,-13,36,65,-39,-241,-22,-149
127,50,-77,-88,102,-13,36,65,-39,-241,-22,-149
128,51,-77,-89,103,-13,36,65,-38,-241,-21,-147
128,52,-76,-90,102,-12,35,64,-39,-241,-22,-147
128,52,-76,-90,102,-12,36,63,-40,-242,-23,-147
128,51,-77,-89,103,-13,36,64,-41,-242,-22,-147
128,50,-78,-89,103,-14,36,64,-41,-242,-22,-148
127,49,-78,-88,103,-14,37,65,-40,-241,-21,-147
127,50,-77,-88,102,-13,36,64,-41,-242,-22,-148
127,50,-77,-88,102,-13,36,64,-41,-243,-23,-148
127,49,-78,-88,103,-14,36,64,-41,-242,-22,-148
127,49,-78,-88,103,-14,36,64,-41,-242,-22,-148
129,51,-78,-90,104,-13,35,62,-42,-243,-23,-149
130,52,-78,-91,104,-13,36,62,-42,-242,-23,-147
129,52,-77,-90,103,-12,36,62,-43,-243,-23,-148
126,52,-74,-89,100,-11,36,63,-43,-243,-22,-147
126,51,-75,-88,101,-12,36,62,-43,-243,-22,-148
126,50,-76,-88,101,-13,36,62,-43,-242,-22,-147
127,49,-78,-88,103,-14,35,61,-45,-244,-24,-149
127,48,-79,-87,103,-15,34,61,-46,-246,-25,-150
126,48,-78,-87,102,-15,34,60,-46,-247,-25,-150
126,48,-78,-87,102,-15,34,60,-46,-247,-25,-149
128,48,-80,-88,104,-16,34,59,-47,-247,-25,-149
130,50,-80,-90,105,-15,33,57,-48,-248,-26,-150
132,51,-81,-91,107,-15,33,57,-49,-249,-27,-150
131,51,-80,-91,106,-14,33,58,-49,-248,-26,-150
129,50,-79,-89,104,-14,33,58,-49,-248,-26,-150
127,49,-78,-88,103,-14,34,59,-49,-249,-26,-149
128,49,-79,-88,104,-15,33,58,-50,-250,-27,-150
128,49,-79,-88,104,-15,32,58,-51,-251,-27,-150
128,49,-79,-88,104,-15,32,57,-51,-251,-27,-150
127,49,-78,-88,103,-14,33,58,-49,-250,-25,-149
128,49,-79,-88,104,-15,33,57,-50,-250,-25,-149
129,50,-79,-89,104,-14,34,57,-50,-249,-25,-149
130,50,-80,-90,105,-15,33,56,-52,-250,-26,-150
129,50,-79,-89,104,-14,35,56,-51,-250,-25,-149
128,48,-80,-88,104,-16,35,57,-51,-249,-25,-149
128,47,-81,-87,105,-17,34,57,-51,-250,-25,-150
128,48,-80,-88,104,-16,34,58,-51,-250,-25,-150
129,48,-81,-88,105,-16,33,57,-52,-251,-26,-151
129,48,-81,-88,105,-16,33,56,-52,-251,-26,-150
129,48,-81,-88,105,-16,32,55,-52,-252,-26,-150
128,48,-80,-88,104,-16,33,55,-52,-251,-26,-150
128,47,-81,-87,105,-17,32,55,-54,-251,-26,-150
129,48,-81,-88,105,-16,32,54,-54,-252,-27,-151
128,48,-80,-88,104,-16,34,55,-53,-251,-26,-149
126,48,-78,-87,102,-15,35,56,-53,-251,-26,-150
123,47,-76,-85,100,-14,35,57,-52,-250,-24,-149
124,46,-78,-85,101,-16,34,56,-53,-251,-26,-150
125,45,-80,-85,103,-17,34,56,-54,-251,-27,-150
127,45,-82,-86,105,-18,34,55,-53,-252,-27,-151
128,46,-82,-87,105,-18,33,54,-54,-253,-28,-151
129,46,-83,-87,106,-18,34,54,-54,-253,-28,-151
129,47,-82,-88,106,-17,34,54,-53,-252,-28,-151
129,47,-82,-88,106,-17,33,54,-53,-252,-28,-151
129,47,-82,-88,106,-17,33,54,-54,-252,-28,-152
130,47,-83,-88,107,-18,32,53,-56,-252,-29,-153
130,47,-83,-88,107,-18,32,54,-55,-252,-29,-152
128,47,-81,-87,105,-17,32,54,-56,-253,-29,-152
126,45,-81,-85,104,-18,31,53,-56,-254,-30,-153
126,45,-81,-85,104,-18,32,54,-56,-254,-29,-153
126,45,-81,-85,104,-18,32,53,-56,-254,-29,-152
126,46,-80,-86,103,-17,33,53,-56,-254,-29,-151
128,47,-81,-87,105,-17,33,53,-56,-254,-29,-152
130,49,-81,-89,106,-16,34,54,-56,-253,-28,-152
131,49,-82,-90,107,-16,32,53,-57,-254,-29,-152
129,46,-83,-87,106,-18,33,53,-57,-254,-29,-152
126,43,-83,-84,105,-20,33,54,-56,-254,-30,-152
125,43,-82,-84,104,-19,33,53,-56,-254,-30,-153
126,44,-82,-85,104,-19,34,54,-55,-253,-29,-152
127,45,-82,-86,105,-18,33,53,-55,-252,-29,-152
127,45,-82,-86,105,-18,33,53,-55,-252,-28,-152
126,45,-81,-85,104,-18,32,53,-56,-253,-29,-152
125,46,-79,-85,102,-16,32,53,-56,-252,-29,-152
124,46,-78,-85,101,-16,34,54,-55,-251,-28,-150
126,46,-80,-86,103,-17,33,54,-56,-252,-29,-150
127,46,-81,-86,104,-17,32,54,-57,-253,-29,-151
127,45,-82,-86,105,-18,32,54,-57,-253,-30,-153
126,44,-82,-85,104,-19,33,55,-56,-252,-29,-152
127,44,-83,-85,105,-19,32,54,-57,-253,-30,-152
127,45,-82,-86,105,-18,32,53,-57,-253,-29,-152
128,45,-83,-86,106,-19,32,53,-56,-253,-29,-151
128,45,-83,-86,106,-19,33,53,-56,-252,-28,-151
128,45,-83,-86,106,-19,33,53,-56,-252,-28,-151
127,45,-82,-86,105,-18,33,53,-57,-253,-29,-152
126,44,-82,-85,104,-19,34,54,-56,-253,-29,-152
126,44,-82,-85,104,-19,34,54,-56,-252,-29,-152
126,44,-82,-85,104,-19,34,55,-56,-250,-28,-151
126,44,-82,-85,104,-19,34,55,-56,-250,-28,-151
126,44,-82,-85,104,-19,34,55,-56,-251,-28,-151
127,44,-83,-85,105,-19,32,54,-57,-252,-29,-153
127,45,-82,-86,105,-18,32,53,-57,-252,-30,-154
126,44,-82,-85,104,-19,33,53,-56,-251,-29,-153
126,44,-82,-85,104,-19,33,54,-56,-251,-30,-153
128,45,-83,-86,106,-19,33,54,-57,-251,-30,-153
130,46,-84,-88,107,-19,33,53,-58,-251,-31,-153
129,45,-84,-87,107,-19,33,53,-59,-251,-31,-153
128,44,-84,-86,106,-20,33,52,-58,-251,-30,-153
127,44,-83,-85,105,-19,32,51,-58,-252,-31,-154
127,44,-83,-85,105,-19,31,51,-58,-253,-32,-154
127,43,-84,-85,106,-20,32,53,-57,-252,-31,-153
127,44,-83,-85,105,-19,31,52,-58,-252,-31,-154
126,45,-81,-85,104,-18,31,52,-58,-252,-31,-153
125,46,-79,-85,102,-16,32,52,-58,-252,-30,-153
126,47,-79,-86,103,-16,32,53,-57,-251,-30,-152
130,47,-83,-88,107,-18,32,52,-59,-252,-31,-154
130,47,-83,-88,107,-18,32,53,-59,-252,-32,-153
129,46,-83,-87,106,-18,32,53,-58,-252,-31,-152
127,45,-82,-86,105,-18,32,53,-58,-252,-31,-153
127,43,-84,-85,106,-20,33,54,-58,-251,-30,-153
127,43,-84,-85,106,-20,33,54,-58,-251,-30,-152
127,44,-83,-85,105,-19,32,52,-59,-252,-30,-153
128,44,-84,-86,106,-20,32,51,-58,-252,-30,-153
128,45,-83,-86,106,-19,32,51,-58,-251,-30,-153
128,46,-82,-87,105,-18,32,51,-59,-252,-31,-153
128,45,-83,-86,106,-19,33,52,-59,-251,-30,-152
127,43,-84,-85,106,-20,33,53,-59,-251,-30,-152
127,42,-85,-84,106,-21,31,52,-59,-251,-30,-153
127,43,-84,-85,106,-20,32,52,-59,-251,-30,-152
127,44,-83,-85,105,-19,32,52,-59,-251,-31,-153
126,44,-82,-85,104,-19,32,52,-58,-250,-30,-152
127,43,-84,-85,106,-20,31,52,-58,-250,-30,-153
128,43,-85,-85,107,-21,31,52,-59,-251,-31,-153
128,44,-84,-86,106,-20,31,52,-59,-250,-30,-153
127,44,-83,-85,105,-19,31,52,-59,-250,-30,-153
126,44,-82,-85,104,-19,33,53,-58,-249,-29,-152
126,44,-82,-85,104,-19,33,53,-58,-249,-29,-151
126,44,-82,-85,104,-19,33,54,-58,-250,-29,-150
126,43,-83,-84,105,-20,32,53,-58,-251,-30,-152
127,43,-84,-85,106,-20,31,52,-59,-251,-30,-153
128,43,-85,-85,107,-21,31,51,-59,-251,-31,-155
129,44,-85,-86,107,-20,32,52,-58,-249,-30,-152
130,46,-84,-88,107,-19,32,52,-58,-249,-30,-152
128,46,-82,-87,105,-18,32,52,-58,-249,-30,-153
126,45,-81,-85,104,-18,33,52,-57,-248,-29,-152
127,44,-83,-85,105,-19,33,52,-57,-249,-29,-151
128,44,-84,-86,106,-20,32,52,-59,-250,-30,-152
128,43,-85,-85,107,-21,30,52,-61,-251,-31,-154
128,43,-85,-85,107,-21,30,51,-62,-252,-32,-154
127,43,-84,-85,106,-20,31,52,-61,-251,-31,-154
127,44,-83,-85,105,-19,31,51,-61,-251,-31,-155
128,45,-83,-86,106,-19,32,52,-59,-249,-31,-153
130,45,-85,-87,108,-20,32,52,-58,-249,-31,-153
130,45,-85,-87,108,-20,32,52,-59,-250,-32,-153
129,45,-84,-87,107,-19,31,51,-60,-251,-32,-154
128,44,-84,-86,106,-20,31,51,-60,-251,-32,-154
127,43,-84,-85,106,-20,32,52,-59,-251,-31,-153
126,43,-83,-84,105,-20,32,52,-59,-251,-31,-154
125,43,-82,-84,104,-19,32,52,-59,-251,-31,-154
126,43,-83,-84,105,-20,31,51,-60,-251,-31,-154
126,43,-83,-84,105,-20,31,51,-60,-251,-31,-154
127,43,-84,-85,106,-20,31,51,-60,-250,-31,-153
128,43,-85,-85,107,-21,31,51,-60,-250,-31,-154
130,43,-87,-86,109,-22,32,51,-59,-249,-31,-153
129,43,-86,-86,108,-21,33,51,-59,-249,-31,-153
128,43,-85,-85,107,-21,33,52,-59,-249,-30,-154
128,43,-85,-85,107,-21,33,53,-59,-249,-30,-153
128,43,-85,-85,107,-21,33,53,-58,-248,-30,-153
128,42,-86,-85,107,-22,33,54,-57,-249,-29,-153
127,41,-86,-84,107,-22,32,52,-58,-250,-30,-154
127,41,-86,-84,107,-22,31,51,-58,-250,-30,-154
127,42,-85,-84,106,-21,31,52,-58,-249,-31,-154
127,43,-84,-85,106,-20,32,54,-57,-248,-31,-154
127,44,-83,-85,105,-19,32,53,-58,-249,-31,-154
126,44,-82,-85,104,-19,33,53,-58,-248,-31,-153
127,44,-83,-85,105,-19,31,52,-61,-250,-33,-155
128,44,-84,-86,106,-20,31,52,-61,-251,-33,-155
128,43,-85,-85,107,-21,31,52,-61,-251,-32,-155
127,43,-84,-85,106,-20,31,53,-59,-250,-31,-154
128,42,-86,-85,107,-22,31,52,-59,-250,-31,-155
130,42,-88,-86,109,-23,31,51,-60,-251,-32,-156
131,43,-88,-87,110,-22,30,50,-59,-251,-33,-156
131,44,-87,-87,109,-21,31,51,-58,-250,-32,-155
130,45,-85,-87,108,-20,32,51,-58,-249,-31,-154
129,45,-84,-87,107,-19,32,52,-58,-247,-32,-155
130,45,-85,-87,108,-20,32,52,-59,-248,-32,-156
129,44,-85,-86,107,-20,33,53,-58,-247,-31,-155
128,43,-85,-85,107,-21,33,53,-59,-248,-31,-155
126,42,-84,-84,105,-21,33,54,-59,-248,-31,-155
126,42,-84,-84,105,-21,32,53,-59,-250,-32,-155
127,42,-85,-84,106,-21,32,52,-59,-249,-32,-155
128,42,-86,-85,107,-22,32,52,-59,-249,-32,-155
127,42,-85,-84,106,-21,32,52,-59,-249,-32,-155
127,43,-84,-85,106,-20,33,53,-59,-248,-31,-155
127,44,-83,-85,105,-19,32,52,-60,-247,-32,-156
127,44,-83,-85,105,-19,32,53,-59,-247,-33,-155
128,44,-84,-86,106,-20,33,53,-59,-247,-32,-155
127,44,-83,-85,105,-19,33,53,-59,-246,-32,-154
127,43,-84,-85,106,-20,33,53,-59,-246,-31,-154
128,42,-86,-85,107,-22,33,53,-59,-247,-31,-155
128,42,-86,-85,107,-22,32,53,-59,-246,-31,-154
126,42,-84,-84,105,-21,32,53,-58,-245,-30,-154
124,43,-81,-83,103,-19,34,55,-56,-243,-29,-152
126,44,-82,-85,104,-19,33,54,-57,-244,-29,-153
129,44,-85,-86,107,-20,32,53,-57,-244,-31,-154
129,44,-85,-86,107,-20,32,53,-58,-245,-31,-154
129,43,-86,-86,108,-21,32,53,-59,-245,-32,-155
128,43,-85,-85,107,-21,33,53,-58,-245,-32,-155
128,43,-85,-85,107,-21,33,54,-57,-244,-31,-155
129,43,-86,-86,108,-21,32,54,-57,-244,-31,-154
129,43,-86,-86,108,-21,32,53,-58,-244,-32,-154
128,42,-86,-85,107,-22,32,53,-58,-244,-32,-154
128,43,-85,-85,107,-21,32,52,-59,-245,-32,-155
129,44,-85,-86,107,-20,33,53,-58,-243,-31,-154
129,44,-85,-86,107,-20,34,53,-58,-242,-31,-153
129,44,-85,-86,107,-20,33,53,-58,-243,-31,-154
127,43,-84,-85,106,-20,33,54,-57,-242,-31,-154
126,42,-84,-84,105,-21,33,54,-58,-242,-31,-154
126,42,-84,-84,105,-21,33,55,-58,-242,-31,-154
127,42,-85,-84,106,-21,33,54,-58,-242,-31,-153
129,43,-86,-86,108,-21,32,53,-58,-243,-31,-154
130,43,-87,-86,109,-22,33,53,-57,-242,-31,-154
130,44,-86,-87,108,-21,31,52,-59,-243,-32,-156
130,43,-87,-86,109,-22,32,53,-58,-242,-31,-155
129,43,-86,-86,108,-21,31,53,-58,-241,-32,-155
128,43,-85,-85,107,-21,33,54,-58,-241,-31,-154
128,43,-85,-85,107,-21,34,54,-58,-241,-30,-154
127,43,-84,-85,106,-20,34,54,-58,-240,-30,-154
128,43,-85,-85,107,-21,33,53,-58,-242,-32,-155
129,43,-86,-86,108,-21,33,53,-58,-242,-32,-156
129,43,-86,-86,108,-21,34,53,-58,-242,-32,-155
128,44,-84,-86,106,-20,34,53,-58,-241,-32,-155
130,45,-85,-87,108,-20,33,52,-58,-241,-32,-155
131,46,-85,-88,108,-19,32,52,-59,-241,-32,-156
130,46,-84,-88,107,-19,32,53,-58,-239,-31,-155
126,45,-81,-85,104,-18,31,54,-58,-239,-31,-155
125,45,-80,-85,103,-17,33,55,-57,-238,-31,-154
126,44,-82,-85,104,-19,33,54,-58,-238,-31,-154
128,44,-84,-86,106,-20,31,53,-60,-239,-32,-155
129,44,-85,-86,107,-20,32,53,-60,-239,-32,-155
128,44,-84,-86,106,-20,32,52,-59,-239,-32,-155
127,44,-83,-85,105,-19,31,51,-59,-239,-32,-155
129,44,-85,-86,107,-20,31,51,-59,-239,-33,-155
130,45,-85,-87,108,-20,31,52,-58,-239,-33,-155
131,46,-85,-88,108,-19,31,52,-59,-239,-34,-156
130,45,-85,-87,108,-20,32,52,-59,-239,-33,-156
129,45,-84,-87,107,-19,31,52,-60,-239,-33,-156
129,44,-85,-86,107,-20,32,54,-59,-238,-32,-154
128,43,-85,-85,107,-21,32,54,-60,-238,-32,-155
127,43,-84,-85,106,-20,33,54,-59,-238,-32,-156
128,44,-84,-86,106,-20,32,53,-60,-237,-32,-156
129,44,-85,-86,107,-20,32,53,-59,-235,-31,-154
130,45,-85,-87,108,-20,31,52,-59,-235,-31,-155
131,47,-84,-89,108,-18,31,53,-59,-235,-31,-155
133,48,-85,-90,109,-18,31,53,-58,-234,-32,-154
132,47,-85,-89,109,-19,32,54,-58,-234,-31,-154
129,45,-84,-87,107,-19,33,54,-58,-235,-32,-155
127,44,-83,-85,105,-19,32,54,-59,-235,-33,-156
126,42,-84,-84,105,-21,31,53,-59,-235,-33,-157
126,42,-84,-84,105,-21,32,53,-59,-235,-32,-156
129,44,-85,-86,107,-20,33,54,-58,-233,-32,-155
131,45,-86,-88,109,-20,33,54,-58,-233,-32,-155
131,46,-85,-88,108,-19,32,52,-59,-235,-34,-156
130,46,-84,-88,107,-19,32,52,-59,-235,-34,-156
130,47,-83,-88,107,-18,31,51,-61,-235,-35,-157
129,47,-82,-88,106,-17,33,52,-60,-234,-34,-156
127,47,-80,-87,104,-16,33,53,-60,-234,-34,-156
127,46,-81,-86,104,-17,33,54,-60,-234,-34,-156
128,45,-83,-86,106,-19,32,54,-59,-234,-34,-157
"
		129","
		46","
		-83","
		-87","
		106","
		-18","
		32","
		53","
		-59","
		-233","
		-34","
		-157"
129,46,-83,-87,106,-18,32,53,-59,-232,-33,-156
129,47,-82,-88,106,-17,33,53,-59,-232,-32,-156
130,47,-83,-88,107,-18,32,52,-60,-232,-33,-157
130,47,-83,-88,107,-18,32,52,-59,-231,-33,-157
129,47,-82,-88,106,-17,33,54,-58,-230,-32,-156
129,46,-83,-87,106,-18,32,54,-59,-231,-33,-156
129,46,-83,-87,106,-18,32,53,-60,-232,-33,-157
128,45,-83,-86,106,-19,32,53,-59,-232,-33,-156
128,45,-83,-86,106,-19,31,52,-60,-231,-34,-156
129,45,-84,-87,107,-19,31,52,-60,-232,-34,-156
130,46,-84,-88,107,-19,31,53,-59,-231,-33,-155
129,46,-83,-87,106,-18,31,53,-58,-230,-33,-155
129,46,-83,-87,106,-18,32,53,-58,-230,-33,-155
129,46,-83,-87,106,-18,33,53,-58,-230,-33,-155
130,47,-83,-88,107,-18,32,52,-59,-231,-33,-156
130,47,-83,-88,107,-18,31,52,-60,-231,-33,-156
129,46,-83,-87,106,-18,31,53,-60,-231,-32,-155
128,45,-83,-86,106,-19,31,53,-59,-230,-33,-155
128,44,-84,-86,106,-20,31,52,-59,-231,-34,-155
128,45,-83,-86,106,-19,33,54,-58,-230,-33,-155
129,46,-83,-87,106,-18,33,54,-58,-230,-33,-155
130,46,-84,-88,107,-19,34,54,-57,-229,-33,-156
130,47,-83,-88,107,-18,32,52,-59,-231,-34,-157
129,47,-82,-88,106,-17,33,53,-58,-230,-33,-156
129,47,-82,-88,106,-17,33,53,-58,-230,-33,-156
130,47,-83,-88,107,-18,31,52,-60,-231,-34,-157
129,46,-83,-87,106,-18,32,53,-59,-230,-33,-156
126,45,-81,-85,104,-18,31,53,-59,-229,-33,-155
123,44,-79,-83,101,-17,32,55,-58,-229,-32,-154
125,43,-82,-84,104,-19,31,53,-60,-231,-33,-156
129,44,-85,-86,107,-20,31,53,-60,-231,-33,-156
131,45,-86,-88,109,-20,31,53,-59,-230,-33,-156
131,46,-85,-88,108,-19,30,52,-61,-231,-35,-157
131,46,-85,-88,108,-19,30,51,-62,-232,-35,-157
131,46,-85,-88,108,-19,31,52,-61,-231,-35,-157
131,46,-85,-88,108,-19,32,54,-60,-230,-35,-157
131,46,-85,-88,108,-19,34,56,-59,-229,-34,-157
132,47,-85,-89,109,-19,35,57,-58,-228,-33,-156
132,46,-86,-89,109,-20,36,58,-57,-227,-32,-156
131,45,-86,-88,109,-20,38,60,-55,-225,-31,-155
132,45,-87,-88,110,-21,38,60,-55,-226,-32,-156
134,46,-88,-90,111,-21,38,60,-54,-225,-32,-156
136,47,-89,-91,113,-21,38,61,-54,-225,-32,-155
137,49,-88,-93,113,-19,37,61,-54,-225,-33,-155
138,49,-89,-93,114,-20,37,62,-53,-224,-32,-155
138,47,-91,-92,115,-22,37,62,-53,-223,-31,-155
138,46,-92,-92,115,-23,36,62,-53,-223,-31,-155
137,47,-90,-92,114,-21,35,61,-53,-223,-30,-155
136,47,-89,-91,113,-21,35,61,-54,-223,-30,-154
135,47,-88,-91,112,-20,36,62,-53,-222,-29,-154
136,47,-89,-91,113,-21,35,61,-54,-223,-30,-155
139,49,-90,-94,115,-20,37,63,-53,-222,-30,-155
141,51,-90,-96,116,-19,39,64,-52,-222,-30,-155
141,52,-89,-96,115,-18,41,65,-51,-222,-29,-155
140,52,-88,-96,114,-18,40,64,-53,-223,-31,-155
139,52,-87,-95,113,-17,40,66,-52,-222,-31,-154
139,53,-86,-96,113,-16,40,66,-50,-222,-30,-155
139,52,-87,-95,113,-17,41,67,-50,-221,-28,-154
138,49,-89,-93,114,-20,41,67,-51,-221,-30,-154
139,48,-91,-93,115,-21,40,66,-51,-222,-30,-155
139,48,-91,-93,115,-21,40,65,-51,-222,-30,-155
137,48,-89,-92,113,-20,40,65,-51,-221,-30,-154
138,49,-89,-93,114,-20,36,61,-54,-222,-32,-155
140,50,-90,-95,115,-20,32,58,-56,-223,-32,-155
141,50,-91,-95,116,-20,29,55,-57,-224,-32,-154
139,49,-90,-94,115,-20,30,56,-57,-224,-31,-154
139,49,-90,-94,115,-20,30,56,-57,-224,-32,-155
139,49,-90,-94,115,-20,30,56,-58,-224,-32,-155
139,48,-91,-93,115,-21,30,56,-58,-225,-33,-156
139,48,-91,-93,115,-21,30,56,-58,-225,-33,-157
138,48,-90,-93,114,-21,30,55,-58,-225,-33,-157
137,49,-88,-93,113,-19,30,56,-56,-224,-32,-156
138,50,-88,-94,113,-19,32,58,-55,-223,-31,-155
141,50,-91,-95,116,-20,32,58,-55,-223,-31,-155
143,50,-93,-96,118,-21,30,56,-58,-225,-32,-156
141,49,-92,-95,117,-21,28,54,-60,-227,-34,-158
138,47,-91,-92,115,-22,29,54,-61,-227,-34,-158
136,46,-90,-91,113,-22,29,53,-61,-227,-33,-157
134,45,-89,-89,112,-22,30,53,-61,-228,-33,-156
133,44,-89,-88,111,-22,29,52,-61,-229,-35,-157
132,44,-88,-88,110,-22,31,53,-60,-228,-33,-156
131,45,-86,-88,109,-20,32,54,-59,-227,-33,-156
130,45,-85,-87,108,-20,33,54,-58,-227,-33,-156
129,45,-84,-87,107,-19,33,54,-58,-227,-34,-156
131,46,-85,-88,108,-19,32,53,-59,-228,-34,-157
131,46,-85,-88,108,-19,31,53,-59,-227,-35,-158
129,46,-83,-87,106,-18,32,54,-59,-227,-35,-158
129,46,-83,-87,106,-18,32,54,-60,-228,-34,-157
129,45,-84,-87,107,-19,31,53,-61,-228,-33,-157
129,44,-85,-86,107,-20,32,53,-61,-228,-34,-158
128,43,-85,-85,107,-21,32,52,-61,-228,-34,-159
129,45,-84,-87,107,-19,32,52,-61,-228,-35,-159
129,46,-83,-87,106,-18,33,54,-59,-227,-35,-159
130,47,-83,-88,107,-18,32,53,-59,-226,-35,-158
131,48,-83,-89,107,-17,32,54,-59,-225,-35,-157
131,48,-83,-89,107,-17,32,54,-59,-225,-35,-158
132,48,-84,-90,108,-18,31,53,-61,-227,-36,-159
132,48,-84,-90,108,-18,30,52,-62,-228,-36,-160
130,47,-83,-88,107,-18,30,53,-62,-228,-36,-160
128,46,-82,-87,105,-18,31,53,-61,-227,-36,-159
129,47,-82,-88,106,-17,32,53,-59,-226,-35,-158
130,48,-82,-89,106,-17,31,52,-59,-226,-36,-158
129,49,-80,-89,105,-15,32,53,-60,-226,-37,-159
130,50,-80,-90,105,-15,31,52,-61,-227,-39,-160
130,50,-80,-90,105,-15,31,53,-60,-226,-38,-160
129,49,-80,-89,105,-15,31,53,-60,-226,-37,-160
127,48,-79,-87,103,-15,32,53,-59,-225,-36,-160
128,48,-80,-88,104,-16,33,54,-58,-224,-34,-158
128,48,-80,-88,104,-16,34,56,-57,-222,-33,-158
127,47,-80,-87,104,-16,33,56,-58,-223,-34,-160
127,46,-81,-86,104,-17,36,58,-56,-222,-33,-158
129,47,-82,-88,106,-17,38,61,-54,-222,-34,-158
128,45,-83,-86,106,-19,42,64,-51,-223,-36,-160
126,42,-84,-84,105,-21,43,66,-51,-225,-40,-164
126,40,-86,-83,106,-23,46,71,-47,-225,-43,-166
129,40,-89,-84,109,-24,49,78,-42,-223,-44,-166
130,41,-89,-85,110,-24,51,82,-36,-221,-45,-168
127,40,-87,-83,107,-23,53,85,-30,-217,-43,-167
127,40,-87,-83,107,-23,52,86,-23,-212,-40,-166
130,42,-88,-86,109,-23,52,89,-14,-203,-35,-163
136,45,-91,-90,114,-23,52,95,-3,-191,-29,-160
142,48,-94,-95,118,-23,53,103,10,-178,-22,-155
147,51,-96,-99,122,-22,56,115,24,-164,-14,-151
149,54,-95,-101,122,-20,66,134,46,-145,-2,-144
152,62,-90,-107,121,-14,75,155,73,-119,13,-134
159,76,-83,-117,121,-3,79,170,105,-85,34,-118
170,97,-73,-133,122,12,73,170,133,-48,61,-99
181,125,-56,-153,119,35,55,151,155,-6,94,-75
192,158,-34,-175,113,62,28,116,174,44,133,-44
203,193,-10,-198,107,92,-10,69,190,100,175,-11
216,225,9,-220,104,117,-54,19,201,158,215,19
226,247,21,-236,103,134,-89,-25,209,211,246,41
227,255,28,-241,100,142,-110,-60,223,252,264,51
216,252,36,-234,90,144,-116,-92,239,282,271,53
197,244,47,-220,75,146,-116,-128,241,293,269,48
177,230,53,-203,62,142,-111,-158,222,276,254,35
159,206,47,-182,56,127,-104,-172,181,219,220,11
141,175,34,-158,54,105,-97,-176,106,117,169,-21
120,143,23,-131,49,83,-87,-171,8,-12,110,-55
98,115,17,-106,41,66,-71,-157,-86,-134,53,-88
82,92,10,-87,36,51,-55,-140,-152,-225,5,-119
76,76,0,-76,38,38,-47,-127,-188,-276,-28,-142
77,69,-8,-73,43,31,-48,-122,-201,-293,-45,-154
79,64,-15,-71,47,25,-51,-116,-199,-293,-52,-160
82,57,-25,-69,54,16,-57,-113,-198,-292,-58,-168
86,49,-37,-67,62,6,-65,-107,-195,-290,-63,-174
93,44,-49,-68,71,-2,-71,-95,-181,-282,-61,-176
100,42,-58,-71,79,-8,-71,-79,-163,-273,-60,-177
105,38,-67,-71,86,-14,-63,-59,-145,-265,-59,-178
109,34,-75,-71,92,-20,-53,-39,-131,-258,-58,-178
113,30,-83,-71,98,-26,-45,-22,-119,-252,-55,-177
114,27,-87,-70,101,-30,-35,-9,-109,-247,-52,-176
118,25,-93,-71,106,-34,-21,4,-97,-241,-49,-174
124,25,-99,-74,112,-37,-9,18,-85,-234,-47,-174
129,27,-102,-78,116,-37,2,32,-73,-228,-45,-173
131,33,-98,-82,115,-32,12,44,-61,-221,-41,-169
130,39,-91,-84,111,-26,21,55,-50,-213,-34,-163
132,47,-85,-89,109,-19,29,66,-39,-204,-27,-157
134,54,-80,-94,107,-13,35,76,-29,-198,-23,-152
134,61,-73,-97,104,-6,37,81,-24,-195,-20,-149
133,66,-67,-99,100,0,40,83,-20,-193,-17,-147
133,69,-64,-101,99,3,42,84,-18,-191,-15,-146
133,68,-65,-100,99,2,42,85,-17,-192,-17,-148
133,66,-67,-99,100,0,43,87,-17,-192,-20,-148
133,66,-67,-99,100,0,44,87,-16,-192,-21,-149
133,67,-66,-100,100,1,44,88,-14,-192,-20,-148
134,67,-67,-100,101,0,43,88,-14,-192,-19,-148
134,66,-68,-100,101,-1,44,90,-13,-191,-17,-146
135,67,-68,-101,102,0,44,90,-13,-191,-17,-147
135,67,-68,-101,102,0,45,91,-12,-190,-16,-146
135,68,-67,-101,101,1,46,93,-11,-189,-16,-146
135,68,-67,-101,101,1,48,94,-10,-188,-16,-146
136,68,-68,-102,102,0,47,95,-9,-187,-16,-147
136,68,-68,-102,102,0,48,95,-7,-185,-16,-147
136,67,-69,-101,103,-1,49,96,-5,-184,-15,-146
136,67,-69,-101,103,-1,49,96,-4,-184,-15,-145
136,68,-68,-102,102,0,47,96,-3,-184,-14,-145
136,68,-68,-102,102,0,49,96,-2,-182,-12,-144
136,69,-67,-102,102,1,50,97,-2,-181,-11,-143
136,70,-66,-103,101,2,50,99,-3,-181,-12,-143
136,71,-65,-103,101,3,48,99,-4,-182,-14,-145
136,71,-65,-103,101,3,49,100,-4,-182,-15,-145
136,72,-64,-104,100,4,50,101,-1,-181,-14,-145
137,72,-65,-104,101,4,51,101,2,-179,-12,-144
138,72,-66,-105,102,3,50,100,3,-177,-12,-144
139,73,-66,-106,103,4,51,101,6,-175,-10,-142
138,73,-65,-105,102,4,52,102,8,-173,-8,-141
135,72,-63,-103,99,5,52,102,8,-172,-7,-141
132,71,-61,-101,97,5,53,104,9,-171,-7,-140
135,72,-63,-103,99,5,51,103,9,-173,-8,-140
138,73,-65,-105,102,4,52,104,10,-171,-7,-139
139,74,-65,-106,102,5,52,105,9,-171,-8,-140
140,75,-65,-107,103,5,52,106,10,-170,-9,-140
141,76,-65,-108,103,6,51,105,11,-169,-9,-140
142,76,-66,-109,104,5,53,106,12,-166,-6,-138
144,78,-66,-111,105,6,52,105,13,-166,-5,-139
144,78,-66,-111,105,6,52,105,16,-164,-3,-138
141,76,-65,-108,103,6,53,106,17,-163,-3,-138
137,75,-62,-106,100,7,54,109,17,-161,-3,-137
137,76,-61,-106,99,8,53,109,18,-161,-3,-138
140,77,-63,-108,102,7,53,110,20,-160,-3,-138
141,78,-63,-109,102,8,53,110,21,-159,-2,-138
141,79,-62,-110,102,9,53,111,23,-158,-1,-137
142,79,-63,-110,103,8,52,111,25,-156,0,-136
143,80,-63,-111,103,9,52,111,26,-155,0,-136
143,80,-63,-111,103,9,53,112,28,-153,1,-134
143,81,-62,-112,103,10,54,113,29,-151,2,-134
142,80,-62,-111,102,9,54,114,29,-150,3,-134
141,80,-61,-110,101,10,54,115,30,-149,4,-132
142,80,-62,-111,102,9,53,114,29,-150,5,-133
143,81,-62,-112,103,10,53,115,31,-148,6,-132
143,81,-62,-112,103,10,54,117,32,-146,7,-131
144,83,-61,-113,103,11,54,118,34,-146,7,-131
145,85,-60,-115,103,13,54,118,36,-144,7,-130
144,87,-57,-115,101,15,54,119,37,-143,7,-130
143,87,-56,-115,100,16,56,120,41,-140,9,-128
144,87,-57,-115,101,15,54,119,42,-139,9,-129
145,86,-59,-115,102,14,53,119,43,-138,9,-129
145,85,-60,-115,103,13,54,121,44,-137,10,-128
144,86,-58,-115,101,14,54,122,44,-136,12,-127
145,87,-58,-116,102,15,54,123,45,-135,13,-127
146,88,-58,-117,102,15,54,124,46,-134,14,-126
147,90,-57,-118,102,17,54,125,48,-132,14,-125
148,90,-58,-119,103,16,55,125,51,-129,15,-124
149,91,-58,-120,104,17,54,126,52,-128,14,-125
150,92,-58,-121,104,17,55,128,55,-126,16,-124
150,93,-57,-121,104,18,55,128,57,-125,17,-123
150,93,-57,-121,104,18,55,129,58,-123,19,-122
149,93,-56,-121,103,19,56,131,61,-120,21,-121
149,94,-55,-121,102,20,55,132,63,-118,23,-120
151,96,-55,-123,103,21,54,134,64,-117,24,-119
152,97,-55,-124,104,21,54,135,65,-115,24,-118
153,99,-54,-126,104,23,55,136,67,-112,25,-118
154,101,-53,-127,104,24,55,137,70,-110,26,-117
155,103,-52,-129,104,26,55,137,72,-107,28,-116
156,104,-52,-130,104,26,56,139,76,-104,31,-114
157,106,-51,-131,104,28,56,140,79,-101,33,-113
158,107,-51,-132,105,28,55,142,82,-98,35,-111
158,108,-50,-133,104,29,56,145,84,-96,36,-110
157,109,-48,-133,103,31,56,147,87,-93,38,-109
159,110,-49,-134,104,31,56,149,89,-90,39,-108
160,112,-48,-136,104,32,56,151,91,-88,40,-107
162,112,-50,-137,106,31,56,153,94,-84,41,-106
163,113,-50,-138,107,32,56,154,97,-82,43,-105
164,116,-48,-140,106,34,55,154,100,-79,44,-104
165,118,-47,-141,106,36,54,155,103,-76,44,-104
162,119,-43,-140,103,38,55,157,108,-72,47,-102
159,120,-39,-139,99,41,54,159,110,-69,49,-100
159,120,-39,-139,99,41,55,162,114,-64,53,-98
162,123,-39,-142,101,42,54,163,117,-62,56,-96
166,126,-40,-146,103,43,53,165,120,-59,59,-94
170,130,-40,-150,105,45,53,167,123,-55,61,-93
173,133,-40,-153,107,47,54,169,126,-50,63,-90
174,135,-39,-154,107,48,53,170,130,-45,67,-88
175,137,-38,-156,107,50,52,171,133,-41,69,-86
175,138,-37,-156,106,51,52,172,138,-37,73,-84
174,139,-35,-156,105,52,52,173,141,-33,76,-82
173,139,-34,-156,104,53,53,175,145,-29,79,-80
174,142,-32,-158,103,55,54,178,149,-24,82,-77
176,144,-32,-160,104,56,55,181,153,-20,85,-74
177,147,-30,-162,104,59,53,181,154,-17,86,-73
177,149,-28,-163,103,61,54,183,156,-13,89,-71
179,152,-27,-165,103,63,53,185,159,-8,91,-70
182,155,-27,-168,105,64,53,186,161,-4,94,-68
183,158,-25,-170,104,67,53,186,165,0,96,-66
184,160,-24,-172,104,68,53,187,168,3,99,-64
185,161,-24,-173,105,69,52,188,171,6,101,-63
185,162,-23,-173,104,70,51,189,174,9,103,-61
184,163,-21,-173,103,71,51,189,175,13,105,-59
183,166,-17,-174,100,75,50,189,176,15,106,-59
183,168,-15,-175,99,77,50,190,177,17,108,-58
184,169,-15,-176,100,77,49,191,179,19,110,-56
185,169,-16,-177,101,77,48,190,180,22,112,-55
187,172,-15,-179,101,79,49,191,182,26,115,-52
188,175,-13,-181,101,81,49,190,183,28,117,-51
186,176,-10,-181,98,83,50,190,185,30,118,-49
184,176,-8,-180,96,84,50,189,185,30,118,-48
183,176,-7,-179,95,85,52,189,186,32,121,-46
185,177,-8,-181,97,85,51,186,183,30,120,-46
186,176,-10,-181,98,83,51,184,180,28,119,-47
186,175,-11,-180,99,82,50,181,177,25,118,-49
185,174,-11,-179,98,82,51,178,174,22,117,-50
183,173,-10,-178,97,82,51,176,170,19,115,-51
182,172,-10,-177,96,81,50,171,164,14,110,-54
180,170,-10,-175,95,80,52,168,160,10,107,-55
178,168,-10,-173,94,79,51,164,154,4,103,-58
177,165,-12,-171,95,77,51,159,147,-3,99,-61
175,162,-13,-168,94,75,51,155,141,-10,96,-63
173,160,-13,-166,93,74,50,150,133,-18,90,-67
170,156,-14,-163,92,71,50,147,126,-26,86,-70
166,152,-14,-159,90,69,49,143,117,-36,80,-74
164,148,-16,-156,90,66,48,138,107,-45,73,-79
163,144,-19,-153,91,63,48,134,99,-53,67,-83
162,140,-22,-151,92,59,48,130,93,-61,63,-86
161,136,-25,-148,93,56,47,125,84,-70,57,-91
159,132,-27,-145,93,53,47,120,76,-79,52,-94
156,128,-28,-142,92,50,47,117,68,-86,47,-97
153,123,-30,-138,92,47,47,113,60,-94,42,-102
150,117,-33,-133,92,42,47,110,53,-102,37,-106
"
		149","
		113","
		-36","
		-131","
		93","
		39","
		46","
		107","
		46","
		-108","
		33","
		-109"
147,109,-38,-128,93,36,45,103,39,-114,29,-112
145,105,-40,-125,93,33,44,100,32,-121,23,-116
144,102,-42,-123,93,30,42,96,25,-129,18,-120
145,102,-43,-123,94,30,42,93,19,-135,14,-123
145,99,-46,-122,96,27,41,89,13,-140,9,-126
143,94,-49,-118,96,23,40,86,8,-146,6,-128
140,91,-49,-115,95,21,40,85,4,-150,4,-130
137,88,-49,-112,93,20,41,84,1,-152,3,-131
135,86,-49,-110,92,19,41,83,-3,-156,1,-133
137,83,-54,-110,96,15,40,80,-8,-162,-4,-136
138,81,-57,-109,98,12,38,77,-13,-166,-7,-139
138,79,-59,-108,99,10,38,77,-15,-168,-8,-140
139,79,-60,-109,100,10,38,76,-17,-170,-10,-141
140,79,-61,-109,101,9,37,74,-19,-173,-13,-143
139,77,-62,-108,101,8,37,73,-22,-174,-14,-144
139,75,-64,-107,102,6,36,72,-23,-176,-15,-144
138,73,-65,-105,102,4,37,70,-25,-178,-16,-144
135,70,-65,-102,100,3,37,70,-26,-179,-17,-144
132,66,-66,-99,99,0,36,69,-28,-180,-18,-145
132,65,-67,-98,100,-1,36,69,-30,-182,-18,-145
135,66,-69,-100,102,-1,35,68,-32,-185,-20,-148
136,66,-70,-101,103,-2,36,68,-32,-186,-20,-148
135,65,-70,-100,103,-2,36,68,-33,-187,-21,-149
134,63,-71,-98,103,-4,37,68,-34,-188,-22,-150
134,64,-70,-99,102,-3,36,67,-36,-190,-24,-152
134,65,-69,-99,102,-2,36,66,-36,-190,-26,-153
134,64,-70,-99,102,-3,36,65,-36,-191,-27,-155
134,63,-71,-98,103,-4,36,65,-36,-191,-27,-155
133,61,-72,-97,103,-5,36,65,-36,-191,-27,-155
132,60,-72,-96,102,-6,35,65,-36,-192,-27,-155
132,61,-71,-96,102,-5,36,66,-36,-192,-27,-154
133,61,-72,-97,103,-5,37,67,-36,-191,-26,-153
134,62,-72,-98,103,-5,37,67,-37,-192,-26,-154
135,64,-71,-99,103,-3,37,67,-37,-192,-26,-154
136,65,-71,-100,104,-3,37,67,-37,-191,-26,-153
134,64,-70,-99,102,-3,37,67,-37,-191,-27,-153
130,62,-68,-96,99,-3,37,67,-37,-191,-27,-153
129,61,-68,-95,99,-3,37,67,-36,-191,-27,-153
131,60,-71,-95,101,-5,37,67,-36,-191,-27,-153
132,60,-72,-96,102,-6,36,66,-37,-193,-29,-155
133,60,-73,-96,103,-6,36,67,-37,-193,-29,-156
134,61,-73,-97,104,-6,36,67,-38,-193,-29,-157
134,62,-72,-98,103,-5,36,68,-37,-193,-29,-156
135,63,-72,-99,104,-4,35,66,-38,-194,-30,-156
135,64,-71,-99,103,-3,35,66,-38,-194,-31,-156
134,65,-69,-99,102,-2,36,67,-37,-193,-29,-155
133,65,-68,-99,101,-1,35,67,-36,-193,-28,-155
131,63,-68,-97,100,-2,37,69,-34,-191,-25,-153
131,61,-70,-96,101,-4,37,68,-34,-191,-25,-154
131,59,-72,-95,102,-6,38,70,-34,-190,-25,-154
131,59,-72,-95,102,-6,38,71,-35,-191,-26,-154
133,59,-74,-96,104,-7,37,70,-35,-191,-27,-155
135,60,-75,-97,105,-7,36,69,-35,-192,-28,-155
136,61,-75,-98,106,-7,37,69,-34,-191,-27,-154
136,62,-74,-99,105,-6,37,69,-35,-191,-28,-154
135,61,-74,-98,105,-6,37,69,-35,-190,-27,-152
134,61,-73,-97,104,-6,36,68,-36,-191,-28,-152
133,61,-72,-97,103,-5,36,68,-36,-190,-27,-152
133,60,-73,-96,103,-6,36,68,-36,-191,-26,-153
132,60,-72,-96,102,-6,35,69,-35,-190,-25,-153
130,60,-70,-95,100,-5,37,71,-34,-189,-24,-151
129,60,-69,-94,99,-4,38,71,-34,-189,-24,-151
130,61,-69,-95,100,-4,39,71,-33,-189,-24,-151
134,63,-71,-98,103,-4,37,70,-34,-190,-26,-152
137,63,-74,-100,106,-5,36,69,-35,-190,-27,-153
136,62,-74,-99,105,-6,36,69,-35,-191,-28,-154
135,62,-73,-98,104,-5,36,69,-35,-191,-27,-153
134,62,-72,-98,103,-5,36,69,-35,-191,-27,-154
133,62,-71,-97,102,-4,36,69,-35,-191,-27,-154
133,62,-71,-97,102,-4,36,70,-36,-192,-27,-154
133,62,-71,-97,102,-4,36,70,-36,-192,-27,-154
133,62,-71,-97,102,-4,36,70,-37,-192,-27,-154
133,61,-72,-97,103,-5,36,70,-36,-192,-27,-153
133,61,-72,-97,103,-5,36,69,-37,-192,-27,-153
135,63,-72,-99,104,-4,35,67,-39,-194,-29,-154
137,65,-72,-101,105,-3,35,68,-37,-194,-28,-153
137,66,-71,-101,104,-2,36,69,-36,-193,-27,-152
135,64,-71,-99,103,-3,35,68,-37,-192,-27,-152
133,63,-70,-98,102,-3,36,68,-39,-193,-28,-153
133,64,-69,-98,101,-2,36,69,-39,-193,-27,-153
134,64,-70,-99,102,-3,36,70,-40,-194,-27,-153
135,64,-71,-99,103,-3,36,70,-40,-194,-27,-152
136,65,-71,-100,104,-3,35,68,-40,-195,-28,-153
137,66,-71,-101,104,-2,36,69,-39,-194,-29,-152
137,65,-72,-101,105,-3,36,68,-39,-194,-29,-152
135,64,-71,-99,103,-3,37,68,-39,-194,-28,-151
133,65,-68,-99,101,-1,37,67,-40,-195,-28,-151
134,65,-69,-99,102,-2,37,68,-40,-194,-29,-151
135,64,-71,-99,103,-3,36,67,-41,-196,-30,-153
135,61,-74,-98,105,-6,35,67,-42,-197,-30,-155
135,61,-74,-98,105,-6,35,67,-43,-197,-30,-154
136,62,-74,-99,105,-6,35,66,-44,-197,-31,-154
136,62,-74,-99,105,-6,35,66,-44,-198,-31,-154
136,63,-73,-99,105,-5,35,66,-44,-198,-30,-154
138,64,-74,-101,106,-5,34,65,-45,-198,-31,-154
139,64,-75,-101,107,-5,34,64,-45,-198,-31,-153
138,63,-75,-100,107,-6,34,64,-45,-198,-31,-153
136,62,-74,-99,105,-6,35,65,-45,-198,-30,-153
135,61,-74,-98,105,-6,35,66,-44,-198,-30,-152
135,61,-74,-98,105,-6,35,65,-46,-199,-30,-153
134,60,-74,-97,104,-7,36,65,-47,-199,-30,-154
134,60,-74,-97,104,-7,36,65,-48,-200,-31,-154
135,61,-74,-98,105,-6,36,64,-48,-201,-31,-154
135,61,-74,-98,105,-6,36,65,-48,-200,-31,-154
136,61,-75,-98,106,-7,35,64,-49,-200,-32,-155
136,60,-76,-98,106,-8,34,63,-50,-200,-34,-156
136,61,-75,-98,106,-7,35,64,-49,-200,-32,-154
136,62,-74,-99,105,-6,35,63,-50,-200,-32,-155
134,61,-73,-97,104,-6,35,62,-50,-201,-32,-156
132,59,-73,-95,103,-7,36,64,-49,-201,-31,-155
133,60,-73,-96,103,-6,35,64,-51,-202,-32,-156
134,61,-73,-97,104,-6,35,63,-52,-202,-33,-156
134,62,-72,-98,103,-5,35,63,-51,-203,-33,-156
135,62,-73,-98,104,-5,36,62,-52,-203,-34,-156
136,62,-74,-99,105,-6,35,61,-53,-204,-36,-157
137,62,-75,-99,106,-6,35,61,-52,-203,-34,-156
136,62,-74,-99,105,-6,35,61,-51,-203,-33,-155
133,62,-71,-97,102,-4,35,62,-51,-201,-33,-155
130,60,-70,-95,100,-5,36,63,-51,-200,-32,-155
130,58,-72,-94,101,-7,36,63,-51,-201,-32,-155
132,58,-74,-95,103,-8,35,62,-53,-202,-34,-156
135,60,-75,-97,105,-7,34,61,-54,-203,-34,-157
137,62,-75,-99,106,-6,34,61,-55,-203,-34,-156
137,61,-76,-99,107,-7,34,60,-55,-203,-35,-156
137,60,-77,-98,107,-8,35,60,-55,-203,-35,-156
136,60,-76,-98,106,-8,34,60,-55,-203,-35,-157
135,59,-76,-97,106,-8,34,60,-54,-203,-35,-157
134,58,-76,-96,105,-9,33,60,-55,-204,-37,-159
134,60,-74,-97,104,-7,34,61,-54,-204,-36,-158
133,60,-73,-96,103,-6,35,61,-54,-204,-35,-157
133,60,-73,-96,103,-6,36,61,-55,-203,-35,-157
133,59,-74,-96,104,-7,35,61,-55,-203,-36,-157
134,59,-75,-96,105,-8,35,61,-55,-203,-36,-158
134,59,-75,-96,105,-8,35,60,-55,-203,-36,-158
135,58,-77,-96,106,-9,36,60,-56,-203,-36,-157
135,60,-75,-97,105,-7,35,60,-56,-203,-37,-157
135,61,-74,-98,105,-6,34,60,-57,-203,-36,-157
134,60,-74,-97,104,-7,35,60,-57,-203,-36,-157
132,59,-73,-95,103,-7,35,60,-58,-203,-36,-157
133,58,-75,-95,104,-8,34,60,-57,-203,-36,-157
134,58,-76,-96,105,-9,34,60,-57,-203,-36,-157
134,59,-75,-96,105,-8,35,60,-56,-202,-36,-157
132,59,-73,-95,103,-7,36,61,-55,-202,-35,-156
131,60,-71,-95,101,-5,36,61,-55,-202,-35,-156
132,60,-72,-96,102,-6,35,60,-57,-203,-36,-158
136,60,-76,-98,106,-8,34,59,-57,-204,-38,-158
136,59,-77,-97,107,-9,34,58,-57,-205,-39,-158
133,57,-76,-95,105,-9,35,59,-56,-204,-38,-158
132,55,-77,-93,105,-11,35,59,-56,-203,-37,-159
132,56,-76,-94,104,-10,36,61,-56,-203,-36,-157
132,57,-75,-94,104,-9,36,61,-57,-203,-37,-157
131,57,-74,-94,103,-8,36,61,-57,-203,-37,-158
132,57,-75,-94,104,-9,34,60,-59,-205,-39,-160
133,58,-75,-95,104,-8,35,60,-58,-204,-39,-159
134,59,-75,-96,105,-8,35,59,-57,-203,-38,-158
135,59,-76,-97,106,-8,36,59,-57,-202,-37,-157
135,59,-76,-97,106,-8,36,59,-56,-202,-36,-157
134,59,-75,-96,105,-8,35,60,-57,-201,-37,-157
134,57,-77,-95,106,-10,35,60,-57,-202,-37,-156
133,56,-77,-94,105,-10,33,59,-58,-204,-38,-157
132,54,-78,-93,105,-12,35,59,-59,-204,-38,-157
132,55,-77,-93,105,-11,35,59,-59,-204,-38,-157
133,56,-77,-94,105,-10,35,59,-59,-205,-39,-158
133,57,-76,-95,105,-9,36,59,-58,-204,-39,-159
133,57,-76,-95,105,-9,36,59,-58,-203,-38,-159
133,56,-77,-94,105,-10,36,58,-58,-204,-38,-159
133,55,-78,-94,106,-11,36,59,-57,-203,-37,-159
133,55,-78,-94,106,-11,35,59,-58,-203,-37,-159
133,55,-78,-94,106,-11,35,59,-59,-203,-37,-159
132,56,-76,-94,104,-10,35,59,-59,-203,-37,-159
132,56,-76,-94,104,-10,36,59,-59,-203,-37,-159
131,57,-74,-94,103,-8,37,59,-59,-202,-37,-159
131,57,-74,-94,103,-8,37,60,-58,-202,-37,-159
133,57,-76,-95,105,-9,36,59,-59,-203,-39,-160
135,57,-78,-96,107,-10,35,57,-60,-204,-40,-162
135,57,-78,-96,107,-10,34,57,-60,-205,-40,-162
135,56,-79,-95,107,-11,35,58,-60,-204,-39,-160
133,56,-77,-94,105,-10,34,57,-60,-203,-40,-160
132,55,-77,-93,105,-11,35,58,-60,-203,-39,-159
131,54,-77,-92,104,-11,35,59,-59,-203,-38,-159
132,56,-76,-94,104,-10,36,59,-59,-203,-38,-159
134,57,-77,-95,106,-10,36,59,-59,-202,-38,-159
135,57,-78,-96,107,-10,36,59,-60,-202,-38,-159
135,57,-78,-96,107,-10,35,58,-60,-203,-39,-160
134,56,-78,-95,106,-11,34,58,-60,-202,-40,-159
133,56,-77,-94,105,-10,34,57,-60,-203,-40,-159
133,56,-77,-94,105,-10,35,58,-60,-203,-40,-159
133,56,-77,-94,105,-10,35,58,-61,-202,-39,-158
133,56,-77,-94,105,-10,34,58,-61,-202,-39,-158
133,56,-77,-94,105,-10,34,58,-62,-202,-39,-158
133,56,-77,-94,105,-10,35,58,-62,-203,-39,-159
133,55,-78,-94,106,-11,35,59,-61,-202,-38,-159
133,55,-78,-94,106,-11,35,59,-60,-202,-39,-159
133,56,-77,-94,105,-10,35,57,-60,-203,-40,-160
133,56,-77,-94,105,-10,35,57,-59,-202,-41,-160
131,54,-77,-92,104,-11,36,58,-58,-201,-39,-160
130,52,-78,-91,104,-13,35,58,-59,-201,-39,-160
131,53,-78,-92,105,-12,33,57,-61,-201,-40,-160
131,54,-77,-92,104,-11,34,58,-61,-201,-39,-158
131,54,-77,-92,104,-11,34,58,-62,-201,-39,-159
130,54,-76,-92,103,-11,34,57,-63,-201,-40,-159
131,56,-75,-93,103,-9,34,58,-63,-202,-40,-159
132,57,-75,-94,104,-9,35,58,-63,-202,-40,-160
133,56,-77,-94,105,-10,35,57,-62,-202,-41,-161
134,55,-79,-94,107,-12,35,56,-61,-202,-42,-161
133,55,-78,-94,106,-11,35,57,-60,-202,-42,-160
132,55,-77,-93,105,-11,35,57,-60,-202,-42,-160
132,55,-77,-93,105,-11,35,57,-61,-202,-40,-160
132,55,-77,-93,105,-11,35,58,-61,-201,-39,-159
132,55,-77,-93,105,-11,35,58,-61,-201,-38,-158
133,54,-79,-93,106,-12,36,59,-61,-201,-39,-159
133,54,-79,-93,106,-12,35,58,-61,-202,-39,-159
133,54,-79,-93,106,-12,34,58,-61,-202,-40,-160
133,55,-78,-94,106,-11,35,57,-61,-202,-41,-160
134,55,-79,-94,107,-12,35,57,-62,-203,-42,-160
134,56,-78,-95,106,-11,35,57,-62,-203,-43,-160
133,56,-77,-94,105,-10,34,56,-62,-203,-43,-161
131,56,-75,-93,103,-9,34,56,-62,-203,-42,-161
130,55,-75,-92,103,-10,35,56,-61,-203,-42,-161
130,55,-75,-92,103,-10,35,57,-62,-203,-42,-161
132,55,-77,-93,105,-11,34,57,-62,-203,-41,-160
134,56,-78,-95,106,-11,33,58,-63,-203,-41,-160
134,56,-78,-95,106,-11,34,58,-62,-202,-40,-159
132,55,-77,-93,105,-11,35,58,-62,-201,-39,-159
132,53,-79,-92,106,-13,36,58,-61,-201,-39,-159
133,54,-79,-93,106,-12,35,57,-62,-202,-41,-159
133,55,-78,-94,106,-11,36,58,-61,-202,-40,-158
133,56,-77,-94,105,-10,36,57,-62,-202,-41,-157
131,56,-75,-93,103,-9,37,58,-61,-202,-40,-157
130,55,-75,-92,103,-10,37,59,-61,-201,-40,-158
132,54,-78,-93,105,-12,35,57,-63,-203,-42,-160
133,53,-80,-93,107,-13,34,56,-64,-204,-44,-162
133,54,-79,-93,106,-12,34,56,-63,-204,-45,-162
133,55,-78,-94,106,-11,36,57,-62,-202,-44,-161
135,55,-80,-95,108,-12,36,57,-63,-202,-44,-161
134,55,-79,-94,107,-12,35,56,-63,-203,-44,-162
131,55,-76,-93,104,-10,35,56,-63,-203,-43,-162
130,54,-76,-92,103,-11,34,57,-62,-201,-41,-160
131,54,-77,-92,104,-11,34,57,-63,-201,-41,-159
132,55,-77,-93,105,-11,34,57,-64,-202,-42,-160
132,55,-77,-93,105,-11,35,57,-63,-202,-42,-160
132,56,-76,-94,104,-10,35,58,-62,-202,-42,-160
132,56,-76,-94,104,-10,35,57,-62,-202,-42,-160
132,55,-77,-93,105,-11,34,57,-62,-202,-42,-160
132,54,-78,-93,105,-12,34,56,-63,-203,-43,-160
133,54,-79,-93,106,-12,34,56,-63,-203,-43,-160
134,55,-79,-94,107,-12,34,56,-64,-204,-44,-161
134,55,-79,-94,107,-12,34,56,-64,-203,-43,-161
132,55,-77,-93,105,-11,34,57,-64,-203,-42,-161
131,54,-77,-92,104,-11,34,57,-64,-203,-41,-160
132,54,-78,-93,105,-12,34,55,-66,-204,-42,-162
131,54,-77,-92,104,-11,35,57,-65,-203,-42,-161
130,54,-76,-92,103,-11,35,58,-65,-202,-42,-160
132,55,-77,-93,105,-11,35,57,-65,-203,-42,-161
134,55,-79,-94,107,-12,35,56,-65,-203,-43,-162
133,54,-79,-93,106,-12,35,56,-65,-203,-43,-162
132,53,-79,-92,106,-13,34,56,-64,-202,-43,-161
132,53,-79,-92,106,-13,35,57,-63,-202,-42,-160
131,54,-77,-92,104,-11,35,58,-62,-202,-41,-158
129,54,-75,-91,102,-10,35,58,-63,-202,-41,-158
130,54,-76,-92,103,-11,35,57,-64,-202,-42,-160
132,54,-78,-93,105,-12,35,56,-65,-203,-43,-162
134,55,-79,-94,107,-12,35,56,-65,-204,-43,-162
134,55,-79,-94,107,-12,35,57,-64,-203,-43,-161
134,55,-79,-94,107,-12,35,56,-65,-202,-43,-160
134,54,-80,-94,107,-13,36,56,-64,-201,-42,-160
133,54,-79,-93,106,-12,36,56,-64,-201,-43,-160
133,54,-79,-93,106,-12,35,57,-64,-201,-43,-161
132,53,-79,-92,106,-13,35,58,-64,-202,-42,-161
131,53,-78,-92,105,-12,35,57,-66,-203,-43,-161
131,52,-79,-91,105,-13,35,56,-67,-203,-43,-161
131,53,-78,-92,105,-12,35,57,-66,-202,-43,-161
131,53,-78,-92,105,-12,35,57,-65,-202,-43,-161
131,54,-77,-92,104,-11,36,57,-65,-203,-44,-162
131,54,-77,-92,104,-11,35,57,-65,-203,-44,-162
132,55,-77,-93,105,-11,34,56,-66,-204,-45,-162
132,56,-76,-94,104,-10,34,56,-65,-203,-45,-162
132,55,-77,-93,105,-11,34,56,-66,-202,-45,-162
132,54,-78,-93,105,-12,33,56,-67,-202,-45,-162
132,54,-78,-93,105,-12,34,56,-66,-202,-44,-162
132,54,-78,-93,105,-12,35,56,-65,-202,-44,-162
133,54,-79,-93,106,-12,35,57,-66,-203,-43,-162
132,54,-78,-93,105,-12,35,56,-67,-203,-43,-161
131,54,-77,-92,104,-11,36,57,-66,-202,-42,-161
132,54,-78,-93,105,-12,36,55,-67,-202,-44,-162
133,54,-79,-93,106,-12,35,57,-66,-202,-44,-161
133,53,-80,-93,107,-13,35,56,-66,-203,-45,-160
130,52,-78,-91,104,-13,35,57,-66,-202,-43,-160
126,52,-74,-89,100,-11,35,57,-66,-202,-43,-160
126,52,-74,-89,100,-11,36,58,-66,-202,-43,-160
128,53,-75,-90,102,-11,37,58,-66,-202,-44,-161
131,54,-77,-92,104,-11,36,58,-66,-201,-44,-161
133,55,-78,-94,106,-11,35,57,-66,-202,-45,-162
133,55,-78,-94,106,-11,35,57,-67,-202,-44,-162
133,55,-78,-94,106,-11,34,57,-68,-202,-44,-162
132,54,-78,-93,105,-12,34,56,-69,-202,-45,-162
132,53,-79,-92,106,-13,35,56,-69,-202,-44,-161
132,52,-80,-92,106,-14,35,56,-68,-202,-45,-161
131,52,-79,-91,105,-13,35,56,-67,-201,-44,-161
"
		131","
		52","
		-79","
		-91","
		105","
		-13","
		35","
		57","
		-67","
		-200","
		-43","
		-161"
130,52,-78,-91,104,-13,36,58,-66,-200,-43,-161
131,53,-78,-92,105,-12,35,57,-67,-202,-44,-162
132,54,-78,-93,105,-12,34,56,-68,-202,-44,-162
133,55,-78,-94,106,-11,35,56,-68,-201,-44,-161
133,55,-78,-94,106,-11,35,56,-68,-202,-44,-161
133,55,-78,-94,106,-11,35,56,-68,-202,-45,-161
133,56,-77,-94,105,-10,34,55,-69,-203,-46,-162
133,55,-78,-94,106,-11,35,56,-68,-201,-44,-161
132,54,-78,-93,105,-12,34,55,-69,-202,-45,-162
130,53,-77,-91,104,-12,34,55,-69,-202,-45,-162
130,53,-77,-91,104,-12,33,56,-70,-202,-46,-162
131,55,-76,-93,104,-10,33,56,-70,-203,-46,-163
130,56,-74,-93,102,-9,34,56,-69,-202,-46,-162
129,57,-72,-93,101,-7,35,57,-68,-202,-46,-162
130,57,-73,-93,102,-8,35,56,-68,-202,-46,-162
132,57,-75,-94,104,-9,34,54,-70,-203,-47,-163
132,56,-76,-94,104,-10,35,54,-69,-203,-46,-162
132,56,-76,-94,104,-10,35,54,-69,-203,-45,-163
131,56,-75,-93,103,-9,34,54,-70,-204,-45,-163
131,56,-75,-93,103,-9,34,54,-71,-204,-46,-163
132,56,-76,-94,104,-10,33,54,-72,-204,-46,-162
132,56,-76,-94,104,-10,32,55,-71,-204,-46,-162
133,56,-77,-94,105,-10,32,54,-72,-205,-47,-162
133,56,-77,-94,105,-10,32,54,-72,-204,-47,-163
133,56,-77,-94,105,-10,33,53,-72,-205,-47,-164
133,55,-78,-94,106,-11,34,54,-72,-204,-46,-163
134,54,-80,-94,107,-13,34,55,-71,-203,-46,-163
133,54,-79,-93,106,-12,36,56,-69,-202,-45,-163
133,55,-78,-94,106,-11,38,58,-68,-202,-44,-162
133,56,-77,-94,105,-10,38,59,-67,-202,-45,-162
135,57,-78,-96,107,-10,39,59,-67,-202,-46,-162
136,57,-79,-96,108,-11,40,60,-67,-202,-46,-162
138,58,-80,-98,109,-11,40,60,-68,-202,-47,-163
139,58,-81,-98,110,-11,40,61,-68,-202,-47,-163
139,58,-81,-98,110,-11,39,61,-69,-201,-47,-163
138,57,-81,-97,110,-12,38,61,-69,-201,-47,-163
137,57,-80,-97,109,-11,38,62,-67,-200,-46,-162
138,57,-81,-97,110,-12,37,61,-68,-200,-48,-163
139,56,-83,-97,111,-13,38,62,-67,-200,-48,-163
139,55,-84,-97,112,-14,39,63,-66,-199,-46,-161
138,57,-81,-97,110,-12,38,62,-67,-200,-46,-161
137,58,-79,-97,108,-10,38,62,-67,-200,-46,-161
136,59,-77,-97,107,-9,39,63,-66,-199,-46,-161
138,58,-80,-98,109,-11,40,65,-64,-196,-46,-162
141,58,-83,-99,112,-12,41,65,-64,-197,-46,-163
142,58,-84,-100,113,-13,42,66,-63,-197,-45,-162
142,59,-83,-100,113,-12,41,65,-65,-198,-45,-162
142,59,-83,-100,113,-12,41,65,-65,-198,-45,-161
141,59,-82,-100,112,-11,42,66,-64,-196,-43,-160
140,59,-81,-99,111,-11,43,67,-64,-195,-43,-160
141,59,-82,-100,112,-11,43,69,-64,-194,-43,-160
142,58,-84,-100,113,-13,43,68,-64,-195,-43,-160
141,58,-83,-99,112,-12,43,67,-64,-195,-44,-160
141,58,-83,-99,112,-12,43,66,-65,-195,-44,-161
142,59,-83,-100,113,-12,41,64,-67,-195,-45,-162
142,58,-84,-100,113,-13,37,61,-67,-196,-45,-161
141,57,-84,-99,113,-13,33,57,-69,-201,-46,-162
142,57,-85,-99,114,-14,31,56,-71,-205,-46,-162
142,58,-84,-100,113,-13,32,57,-71,-202,-46,-161
141,59,-82,-100,112,-11,32,57,-71,-199,-45,-161
142,59,-83,-100,113,-12,31,55,-72,-198,-46,-162
143,59,-84,-101,114,-12,32,56,-72,-198,-46,-163
143,58,-85,-100,114,-13,32,57,-71,-197,-47,-163
143,58,-85,-100,114,-13,32,58,-70,-197,-47,-162
143,59,-84,-101,114,-12,33,58,-69,-196,-46,-161
142,59,-83,-100,113,-12,34,58,-69,-195,-46,-160
141,58,-83,-99,112,-12,34,57,-70,-195,-46,-160
140,57,-83,-98,112,-13,33,57,-71,-197,-47,-161
139,56,-83,-97,111,-13,31,55,-74,-200,-49,-162
138,55,-83,-96,111,-14,32,55,-74,-200,-49,-163
137,55,-82,-96,110,-13,32,55,-74,-201,-50,-164
136,56,-80,-96,108,-12,32,54,-75,-203,-51,-165
134,57,-77,-95,106,-10,32,54,-76,-203,-51,-165
131,56,-75,-93,103,-9,33,53,-77,-204,-51,-165
131,55,-76,-93,104,-10,34,53,-78,-204,-52,-165
132,55,-77,-93,105,-11,34,54,-78,-204,-52,-165
132,55,-77,-93,105,-11,35,54,-77,-203,-51,-165
132,55,-77,-93,105,-11,34,53,-77,-202,-51,-165
131,55,-76,-93,104,-10,34,53,-78,-202,-51,-165
130,56,-74,-93,102,-9,34,52,-78,-202,-51,-165
131,56,-75,-93,103,-9,35,54,-77,-202,-51,-165
132,56,-76,-94,104,-10,35,54,-77,-201,-52,-164
133,57,-76,-95,105,-9,34,53,-77,-203,-53,-165
133,57,-76,-95,105,-9,34,53,-77,-203,-53,-165
133,57,-76,-95,105,-9,33,53,-76,-203,-53,-165
132,56,-76,-94,104,-10,33,53,-77,-202,-52,-165
132,56,-76,-94,104,-10,32,51,-77,-202,-53,-165
131,56,-75,-93,103,-9,33,52,-77,-202,-52,-164
130,56,-74,-93,102,-9,34,52,-77,-202,-52,-164
128,56,-72,-92,100,-8,34,53,-78,-202,-52,-165
128,55,-73,-91,101,-9,33,52,-78,-203,-53,-166
130,56,-74,-93,102,-9,34,53,-78,-203,-52,-165
132,57,-75,-94,104,-9,34,53,-78,-203,-52,-164
132,58,-74,-95,103,-8,34,53,-79,-202,-52,-164
133,58,-75,-95,104,-8,34,53,-79,-200,-52,-165
133,58,-75,-95,104,-8,35,53,-78,-199,-51,-164
132,57,-75,-94,104,-9,34,53,-78,-199,-51,-164
131,56,-75,-93,103,-9,34,53,-79,-199,-49,-163
132,57,-75,-94,104,-9,33,52,-80,-200,-50,-164
132,58,-74,-95,103,-8,34,53,-79,-202,-51,-163
130,58,-72,-94,101,-7,35,55,-79,-205,-51,-162
128,58,-70,-93,99,-6,35,55,-79,-206,-52,-164
127,59,-68,-93,98,-4,36,56,-77,-202,-53,-165
130,58,-72,-94,101,-7,39,59,-74,-200,-54,-167
132,58,-74,-95,103,-8,40,60,-73,-203,-56,-169
131,56,-75,-93,103,-9,44,64,-71,-205,-57,-170
129,54,-75,-91,102,-10,47,69,-68,-208,-59,-172
129,52,-77,-90,103,-12,50,74,-64,-206,-60,-173
130,50,-80,-90,105,-15,53,78,-59,-201,-61,-175
130,51,-79,-90,105,-14,54,81,-53,-195,-60,-174
130,53,-77,-91,104,-12,54,82,-47,-191,-57,-172
134,56,-78,-95,106,-11,54,84,-40,-185,-53,-169
139,59,-80,-99,110,-10,54,89,-30,-174,-49,-166
144,62,-82,-103,113,-10,56,98,-18,-160,-40,-161
149,65,-84,-107,117,-9,58,109,-3,-146,-32,-157
152,68,-84,-110,118,-8,66,128,19,-128,-22,-150
156,76,-80,-116,118,-2,76,148,47,-103,-7,-141
163,89,-74,-126,119,8,81,164,80,-71,14,-127
172,108,-64,-140,118,22,77,168,110,-31,41,-106
182,135,-47,-158,115,44,60,155,134,10,73,-82
192,167,-25,-179,109,71,31,124,151,56,111,-53
203,204,1,-203,101,103,-9,80,166,109,151,-20
216,239,23,-227,97,131,-53,29,176,165,193,12
228,265,37,-246,96,151,-95,-19,183,215,226,36
231,277,46,-254,93,162,-122,-57,195,256,247,48
222,275,53,-248,85,164,-132,-89,211,288,257,51
204,268,64,-236,70,166,-134,-123,215,299,255,47
183,254,71,-218,56,163,-128,-150,202,287,241,35
166,230,64,-198,51,147,-120,-165,165,241,210,12
152,196,44,-174,54,120,-113,-169,98,152,161,-19
134,162,28,-148,53,95,-102,-164,4,30,102,-54
113,132,19,-122,47,76,-84,-151,-90,-90,44,-89
94,108,14,-101,40,61,-65,-135,-162,-186,-7,-121
82,88,6,-85,38,47,-52,-121,-204,-246,-44,-146
80,77,-3,-78,42,37,-52,-116,-224,-272,-64,-161
83,71,-12,-77,48,30,-57,-114,-229,-277,-74,-170
86,66,-20,-76,53,23,-63,-111,-227,-276,-80,-177
90,60,-30,-75,60,15,-69,-106,-222,-273,-83,-182
96,57,-39,-76,68,9,-74,-94,-209,-266,-82,-182
103,53,-50,-78,77,2,-74,-78,-190,-256,-80,-182
108,49,-59,-78,84,-5,-65,-59,-173,-247,-79,-183
115,45,-70,-80,93,-12,-53,-38,-157,-240,-78,-184
120,41,-79,-80,100,-19,-43,-19,-144,-233,-75,-183
123,38,-85,-80,104,-23,-33,-6,-134,-228,-73,-183
125,35,-90,-80,108,-27,-20,6,-123,-220,-70,-182
129,36,-93,-82,111,-28,-7,22,-109,-211,-67,-181
132,40,-92,-86,112,-26,7,37,-95,-204,-63,-177
132,46,-86,-89,109,-20,17,48,-82,-198,-58,-173
132,52,-80,-92,106,-14,25,58,-71,-192,-53,-169
133,58,-75,-95,104,-8,33,69,-61,-184,-47,-164
134,66,-68,-100,101,-1,38,76,-55,-179,-43,-161
135,73,-62,-104,99,6,41,79,-50,-175,-40,-158
136,78,-58,-107,97,10,42,81,-45,-172,-38,-155
137,81,-56,-109,97,13,43,83,-44,-170,-37,-154
137,81,-56,-109,97,13,45,84,-44,-171,-38,-154
137,80,-57,-108,97,12,46,84,-44,-173,-39,-155
137,79,-58,-108,98,11,45,84,-44,-173,-39,-156
137,79,-58,-108,98,11,45,84,-43,-173,-38,-156
136,79,-57,-107,97,11,47,86,-41,-171,-36,-154
136,80,-56,-108,96,12,47,86,-41,-171,-37,-154
136,80,-56,-108,96,12,48,88,-40,-170,-37,-154
134,81,-53,-107,94,14,50,91,-39,-168,-36,-152
135,81,-54,-108,95,14,51,92,-39,-167,-36,-153
138,82,-56,-110,97,13,51,93,-39,-166,-37,-153
139,81,-58,-110,99,12,51,93,-38,-167,-37,-154
138,80,-58,-109,98,11,51,94,-36,-167,-37,-154
138,80,-58,-109,98,11,51,93,-35,-166,-36,-154
138,80,-58,-109,98,11,52,93,-33,-165,-35,-152
138,81,-57,-109,98,12,52,93,-32,-165,-34,-152
139,83,-56,-111,98,14,52,94,-31,-164,-34,-152
140,84,-56,-112,98,14,51,95,-31,-163,-33,-151
140,84,-56,-112,98,14,51,96,-31,-163,-33,-151
139,84,-55,-111,97,15,52,97,-31,-162,-34,-152
140,85,-55,-112,98,15,52,97,-32,-163,-35,-152
141,86,-55,-113,98,16,54,98,-30,-162,-34,-152
142,86,-56,-114,99,15,53,98,-30,-162,-34,-152
142,85,-57,-113,100,14,54,99,-27,-160,-32,-150
141,84,-57,-112,99,14,53,98,-25,-159,-31,-149
141,85,-56,-113,99,15,54,99,-23,-157,-30,-149
141,86,-55,-113,98,16,55,99,-22,-155,-29,-148
141,87,-54,-114,98,17,54,99,-24,-156,-30,-149
141,87,-54,-114,98,17,53,101,-24,-155,-30,-149
141,88,-53,-114,97,18,54,102,-23,-154,-29,-148
142,89,-53,-115,98,18,55,103,-22,-153,-30,-149
144,89,-55,-116,100,17,56,103,-21,-152,-29,-148
144,89,-55,-116,100,17,56,104,-19,-151,-29,-149
145,89,-56,-117,101,17,55,103,-18,-150,-29,-150
144,90,-54,-117,99,18,55,103,-17,-149,-27,-149
141,90,-51,-115,96,20,56,104,-14,-147,-25,-147
140,90,-50,-115,95,20,58,105,-13,-145,-23,-145
142,91,-51,-116,97,20,57,106,-13,-144,-24,-145
145,92,-53,-118,99,20,55,106,-15,-145,-25,-146
145,93,-52,-119,99,21,56,107,-14,-143,-25,-145
145,94,-51,-119,98,22,57,108,-12,-141,-25,-145
145,94,-51,-119,98,22,57,108,-10,-141,-25,-145
145,94,-51,-119,98,22,58,109,-8,-141,-25,-145
145,94,-51,-119,98,22,58,109,-7,-140,-24,-144
145,94,-51,-119,98,22,58,110,-5,-139,-23,-144
145,94,-51,-119,98,22,58,110,-4,-138,-22,-143
145,95,-50,-120,98,23,57,109,-4,-137,-21,-143
145,96,-49,-120,97,24,57,110,-3,-135,-21,-142
145,97,-48,-121,97,25,58,111,-2,-134,-20,-141
146,98,-48,-122,97,25,57,111,-3,-134,-21,-142
146,98,-48,-122,97,25,57,113,-2,-133,-21,-141
147,99,-48,-123,98,26,58,113,-1,-133,-21,-141
148,100,-48,-124,98,26,59,115,2,-130,-19,-140
148,100,-48,-124,98,26,58,116,4,-129,-18,-139
147,100,-47,-123,97,27,56,116,6,-128,-16,-139
146,99,-47,-122,97,26,58,116,8,-126,-14,-137
146,100,-46,-123,96,27,59,116,8,-125,-14,-137
147,102,-45,-124,96,29,58,117,8,-124,-14,-136
147,102,-45,-124,96,29,59,120,9,-121,-13,-135
147,103,-44,-125,96,30,60,122,11,-118,-13,-135
149,105,-44,-127,97,31,59,123,13,-119,-13,-135
151,106,-45,-128,98,31,58,123,14,-118,-12,-135
152,107,-45,-129,99,31,58,124,16,-115,-11,-134
152,107,-45,-129,99,31,59,124,19,-112,-10,-133
151,108,-43,-129,97,33,60,125,22,-111,-8,-132
148,109,-39,-128,94,35,62,128,25,-108,-5,-130
148,110,-38,-129,93,36,62,129,26,-106,-4,-129
150,111,-39,-130,95,36,62,129,27,-105,-4,-129
152,112,-40,-132,96,36,59,130,28,-104,-5,-129
153,112,-41,-132,97,36,59,132,30,-102,-4,-128
153,113,-40,-133,97,37,60,134,32,-100,-3,-128
154,114,-40,-134,97,37,60,135,33,-100,-3,-128
156,115,-41,-135,99,37,60,136,36,-98,-2,-127
157,117,-40,-137,99,39,59,138,39,-95,1,-126
158,118,-40,-138,99,39,58,138,41,-92,2,-125
158,118,-40,-138,99,39,59,139,44,-89,4,-124
157,120,-37,-138,97,42,61,142,47,-85,7,-122
158,122,-36,-140,97,43,61,144,49,-82,8,-121
159,124,-35,-141,97,45,61,146,52,-81,9,-119
160,126,-34,-143,97,46,62,149,54,-79,10,-117
162,128,-34,-145,98,47,63,152,57,-75,12,-115
163,131,-32,-147,98,50,62,153,61,-73,14,-114
164,132,-32,-148,98,50,63,155,65,-69,17,-113
164,132,-32,-148,98,50,63,156,68,-65,19,-112
165,133,-32,-149,99,51,62,157,71,-62,20,-112
165,135,-30,-150,98,53,62,159,75,-59,23,-110
166,137,-29,-151,98,54,63,161,78,-55,26,-107
167,139,-28,-153,98,56,64,164,81,-51,28,-105
169,142,-27,-155,98,58,65,168,85,-47,30,-103
170,145,-25,-157,98,60,65,170,88,-44,31,-102
171,146,-25,-158,98,61,65,173,92,-40,34,-100
172,147,-25,-159,99,61,65,175,95,-37,36,-100
173,150,-23,-161,98,64,66,176,99,-32,40,-97
174,153,-21,-163,98,66,65,177,102,-29,42,-96
175,155,-20,-165,98,68,64,177,106,-24,45,-94
175,157,-18,-166,97,70,64,179,110,-19,48,-91
173,158,-15,-165,94,72,65,182,114,-14,52,-89
173,160,-13,-166,93,74,65,184,118,-10,54,-87
174,163,-11,-168,93,76,66,187,122,-6,57,-84
178,166,-12,-172,95,77,66,189,125,-2,59,-83
181,168,-13,-174,97,78,65,190,127,0,61,-81
183,170,-13,-176,98,79,65,191,130,3,64,-79
184,171,-13,-177,99,79,65,192,134,8,66,-77
185,174,-11,-179,98,82,65,194,138,14,69,-75
185,178,-7,-181,96,86,65,194,140,18,71,-74
186,180,-6,-183,96,87,64,194,143,20,73,-71
186,181,-5,-183,96,88,64,196,146,23,76,-69
187,183,-4,-185,96,90,64,197,148,26,78,-68
187,186,-1,-186,94,93,65,198,151,30,80,-66
188,187,-1,-187,95,93,65,199,152,32,82,-65
188,189,1,-188,94,95,66,200,153,35,84,-62
189,190,1,-189,94,96,65,199,155,36,85,-61
189,192,3,-190,93,98,64,198,156,38,87,-61
189,193,4,-191,93,99,64,197,158,40,88,-60
188,193,5,-190,92,99,64,195,158,42,89,-59
188,194,6,-191,91,100,63,192,157,43,90,-58
187,194,7,-190,90,101,63,191,156,43,92,-57
189,195,6,-192,92,101,62,190,154,41,92,-58
190,195,5,-192,93,100,62,188,152,39,91,-59
187,195,8,-191,90,102,62,186,149,38,89,-59
184,194,10,-189,87,102,63,183,145,35,87,-59
184,193,9,-188,88,101,63,180,140,30,84,-61
183,190,7,-186,88,99,62,175,135,24,81,-64
183,187,4,-185,90,96,61,170,128,17,77,-68
181,184,3,-182,89,94,61,165,121,11,74,-70
179,181,2,-180,89,92,59,160,114,4,68,-74
177,178,1,-177,88,90,59,156,107,-4,63,-76
175,175,0,-175,88,88,59,152,99,-12,59,-79
174,171,-3,-172,89,84,58,147,89,-21,54,-83
171,167,-4,-169,88,82,59,144,81,-28,49,-86
169,162,-7,-165,88,78,58,139,71,-38,43,-91
167,158,-9,-162,88,75,57,134,62,-48,36,-97
166,154,-12,-160,89,71,56,129,54,-55,31,-100
164,150,-14,-157,89,68,55,124,46,-63,27,-104
162,145,-17,-153,90,64,53,119,37,-72,22,-107
159,140,-19,-149,89,61,52,114,28,-81,16,-111
155,135,-20,-145,88,58,52,109,20,-87,10,-114
153,132,-21,-142,87,56,50,105,11,-95,5,-119
153,129,-24,-141,89,53,49,101,2,-102,1,-123
152,125,-27,-138,90,49,48,99,-5,-109,-3,-126
151,121,-30,-136,91,46,48,96,-12,-115,-8,-129
149,116,-33,-132,91,42,47,93,-19,-121,-13,-133
148,112,-36,-130,92,38,47,90,-24,-127,-16,-135
147,109,-38,-128,93,36,45,86,-29,-132,-20,-138
146,106,-40,-126,93,33,43,82,-34,-137,-23,-141
144,103,-41,-123,93,31,43,80,-38,-141,-26,-143
"
		143","
		100","
		-43","
		-121","
		93","
		29","
		42","
		77","
		-43","
		-145","
		-29","
		-145"
142,97,-45,-119,94,26,42,76,-47,-149,-31,-146
141,95,-46,-118,94,25,42,75,-51,-154,-34,-149
140,93,-47,-116,94,23,42,74,-54,-157,-36,-150
141,92,-49,-116,95,22,41,72,-58,-160,-39,-152
141,90,-51,-115,96,20,40,70,-62,-163,-42,-154
140,89,-51,-114,96,19,40,69,-65,-165,-44,-156
138,87,-51,-112,95,18,40,67,-67,-166,-44,-157
136,86,-50,-111,93,18,40,66,-69,-168,-44,-157
135,85,-50,-110,93,18,39,66,-71,-169,-45,-158
137,84,-53,-110,95,16,38,63,-73,-171,-47,-160
138,82,-56,-110,97,13,36,61,-76,-175,-49,-162
137,80,-57,-108,97,12,36,60,-77,-177,-51,-162
136,80,-56,-108,96,12,36,61,-79,-179,-52,-163
136,80,-56,-108,96,12,36,61,-80,-180,-53,-164
136,80,-56,-108,96,12,35,60,-80,-181,-54,-165
136,79,-57,-107,97,11,36,61,-80,-180,-53,-165
137,78,-59,-107,98,10,36,60,-81,-180,-53,-165
137,77,-60,-107,99,9,36,59,-82,-181,-54,-166
137,76,-61,-106,99,8,35,57,-84,-182,-55,-166
136,76,-60,-106,98,8,36,58,-83,-181,-54,-166
136,76,-60,-106,98,8,36,59,-84,-181,-55,-166
136,76,-60,-106,98,8,37,59,-84,-182,-56,-165
136,76,-60,-106,98,8,37,60,-85,-182,-56,-165
135,75,-60,-105,98,8,37,60,-86,-182,-57,-166
134,74,-60,-104,97,7,36,60,-86,-183,-57,-166
133,73,-60,-103,97,7,36,60,-86,-183,-58,-166
133,74,-59,-103,96,8,35,59,-88,-184,-59,-168
133,74,-59,-103,96,8,35,58,-87,-183,-58,-168
133,73,-60,-103,97,7,36,58,-86,-182,-58,-168
133,71,-62,-102,98,5,35,58,-86,-182,-58,-167
134,72,-62,-103,98,5,36,59,-87,-182,-57,-167
135,73,-62,-104,99,6,36,59,-87,-183,-57,-167
135,74,-61,-104,98,7,36,61,-86,-183,-57,-166
136,74,-62,-105,99,6,36,61,-87,-184,-58,-167
136,74,-62,-105,99,6,35,61,-88,-184,-59,-167
134,73,-61,-103,98,6,35,61,-88,-183,-58,-167
132,73,-59,-102,96,7,37,61,-87,-182,-57,-166
132,73,-59,-102,96,7,37,61,-87,-182,-56,-166
134,74,-60,-104,97,7,36,60,-86,-182,-56,-167
135,74,-61,-104,98,7,36,61,-85,-182,-56,-167
136,74,-62,-105,99,6,35,60,-86,-183,-58,-168
135,74,-61,-104,98,7,37,61,-86,-183,-57,-167
135,74,-61,-104,98,7,37,62,-87,-183,-58,-167
134,74,-60,-104,97,7,37,62,-87,-183,-58,-168
134,74,-60,-104,97,7,37,63,-88,-183,-58,-168
134,74,-60,-104,97,7,38,63,-87,-183,-58,-168
135,74,-61,-104,98,7,38,63,-86,-182,-57,-168
136,75,-61,-105,99,7,37,62,-86,-182,-57,-168
136,75,-61,-105,99,7,37,62,-86,-182,-57,-168
136,74,-62,-105,99,6,36,62,-86,-182,-58,-168
135,75,-60,-105,98,8,36,62,-87,-182,-59,-169
134,76,-58,-105,96,9,37,62,-87,-181,-59,-168
134,76,-58,-105,96,9,37,63,-88,-182,-59,-168
134,76,-58,-105,96,9,36,63,-88,-183,-59,-168
134,75,-59,-104,97,8,37,64,-87,-183,-59,-168
134,74,-60,-104,97,7,36,63,-87,-183,-59,-168
134,73,-61,-103,98,6,36,62,-87,-182,-59,-168
134,74,-60,-104,97,7,37,62,-87,-182,-58,-168
134,74,-60,-104,97,7,37,63,-86,-181,-58,-168
133,74,-59,-103,96,8,37,63,-87,-181,-57,-167
133,75,-58,-104,96,9,38,63,-87,-180,-56,-167
134,76,-58,-105,96,9,38,64,-88,-181,-57,-167
134,76,-58,-105,96,9,38,64,-89,-182,-57,-168
133,75,-58,-104,96,9,39,65,-88,-182,-57,-167
133,75,-58,-104,96,9,38,64,-89,-182,-57,-168
134,76,-58,-105,96,9,37,63,-89,-183,-58,-168
134,76,-58,-105,96,9,37,62,-89,-183,-58,-168
133,76,-57,-104,95,10,38,63,-88,-181,-56,-167
131,76,-55,-103,93,11,38,63,-88,-180,-56,-167
131,76,-55,-103,93,11,38,63,-88,-179,-56,-167
133,76,-57,-104,95,10,38,63,-89,-180,-56,-166
134,76,-58,-105,96,9,37,61,-91,-182,-58,-167
134,76,-58,-105,96,9,37,61,-92,-182,-58,-167
134,76,-58,-105,96,9,37,62,-92,-183,-58,-166
134,76,-58,-105,96,9,37,62,-92,-183,-58,-167
134,76,-58,-105,96,9,36,62,-92,-184,-58,-168
134,77,-57,-105,96,10,37,61,-93,-183,-58,-169
134,77,-57,-105,96,10,37,60,-93,-183,-58,-169
134,77,-57,-105,96,10,37,60,-94,-184,-59,-169
134,76,-58,-105,96,9,37,59,-94,-184,-59,-169
134,76,-58,-105,96,9,37,59,-95,-184,-59,-169
134,77,-57,-105,96,10,37,59,-95,-184,-59,-168
135,77,-58,-106,97,10,36,60,-95,-185,-59,-167
134,76,-58,-105,96,9,36,59,-96,-186,-60,-169
134,76,-58,-105,96,9,36,59,-97,-187,-60,-170
135,77,-58,-106,97,10,36,59,-98,-186,-59,-169
136,78,-58,-107,97,10,35,57,-99,-185,-60,-169
136,77,-59,-106,98,9,34,57,-100,-184,-60,-170
135,76,-59,-105,97,9,35,57,-100,-185,-60,-170
135,75,-60,-105,98,8,34,56,-100,-185,-61,-170
135,75,-60,-105,98,8,34,56,-100,-185,-61,-170
134,75,-59,-104,97,8,35,57,-100,-185,-61,-169
133,75,-58,-104,96,9,35,57,-102,-187,-62,-169
134,75,-59,-104,97,8,35,57,-103,-187,-62,-170
134,76,-58,-105,96,9,35,56,-104,-187,-62,-171
134,76,-58,-105,96,9,35,56,-104,-187,-61,-170
133,76,-57,-104,95,10,36,57,-103,-186,-61,-169
132,76,-56,-104,94,10,35,56,-104,-187,-62,-170
133,75,-58,-104,96,9,34,55,-105,-189,-63,-171
134,74,-60,-104,97,7,33,53,-106,-189,-64,-172
135,75,-60,-105,98,8,33,53,-106,-190,-64,-172
135,76,-59,-105,97,9,34,54,-106,-189,-63,-171
135,76,-59,-105,97,9,34,54,-105,-188,-64,-170
135,74,-61,-104,98,7,35,55,-106,-189,-64,-170
133,72,-61,-102,97,6,35,55,-107,-190,-64,-171
134,73,-61,-103,98,6,33,54,-107,-190,-64,-172
135,74,-61,-104,98,7,34,55,-106,-188,-63,-171
135,74,-61,-104,98,7,35,54,-107,-188,-63,-171
134,74,-60,-104,97,7,35,54,-107,-189,-63,-171
134,74,-60,-104,97,7,34,54,-108,-189,-63,-171
134,74,-60,-104,97,7,34,54,-108,-189,-63,-171
134,74,-60,-104,97,7,35,54,-109,-190,-63,-170
134,74,-60,-104,97,7,36,54,-109,-191,-64,-170
134,74,-60,-104,97,7,35,53,-109,-192,-64,-171
133,73,-60,-103,97,7,35,54,-110,-192,-64,-172
132,72,-60,-102,96,6,34,53,-111,-192,-65,-172
133,73,-60,-103,97,7,35,53,-109,-191,-64,-171
135,74,-61,-104,98,7,34,52,-110,-191,-65,-172
135,73,-62,-104,99,6,34,52,-111,-192,-65,-172
134,73,-61,-103,98,6,33,51,-111,-192,-66,-172
134,74,-60,-104,97,7,34,51,-111,-192,-66,-173
133,74,-59,-103,96,8,34,51,-112,-192,-66,-173
132,73,-59,-102,96,7,35,52,-112,-192,-67,-172
131,72,-59,-101,95,7,36,53,-111,-192,-66,-170
