I,II,III,aVR,aVL,aVF,V1,V2,V3,V4,V5,V6
12,77,65,-44,-26,71,36,-75,1,-4,-53,10
12,77,65,-44,-26,71,36,-75,2,-4,-53,10
12,77,65,-44,-26,71,36,-74,3,-3,-52,11
12,77,65,-44,-26,71,36,-74,4,-2,-52,11
12,77,65,-44,-26,71,36,-74,5,-1,-51,12
12,77,65,-44,-26,71,36,-74,6,0,-51,12
13,77,64,-45,-25,71,36,-75,6,0,-51,12
13,78,65,-45,-26,72,37,-74,7,1,-50,13
13,78,65,-45,-26,72,37,-74,8,2,-50,13
13,79,66,-46,-26,73,38,-73,9,3,-49,13
14,79,65,-46,-25,72,38,-73,9,3,-50,13
14,80,66,-47,-26,73,39,-71,11,4,-49,13
14,80,66,-47,-26,73,39,-70,13,5,-49,13
14,81,67,-47,-26,74,39,-69,14,6,-48,14
14,81,67,-47,-26,74,40,-68,16,8,-48,14
15,82,67,-48,-26,75,39,-69,16,8,-48,13
15,83,68,-49,-26,76,39,-68,18,10,-47,14
15,84,69,-49,-27,77,39,-68,18,11,-47,14
15,84,69,-49,-27,77,40,-67,19,12,-46,14
15,85,70,-50,-27,78,41,-66,21,13,-45,15
15,85,70,-50,-27,78,41,-64,23,15,-44,15
16,85,69,-50,-26,77,42,-63,24,16,-43,16
16,86,70,-51,-27,78,42,-63,25,16,-43,16
16,86,70,-51,-27,78,43,-62,27,17,-43,16
16,87,71,-51,-27,79,43,-62,29,19,-42,16
16,88,72,-52,-28,80,44,-61,31,21,-40,17
16,89,73,-52,-28,81,44,-61,32,21,-40,17
16,90,74,-53,-29,82,44,-60,33,23,-39,18
16,90,74,-53,-29,82,45,-59,34,24,-38,19
16,91,75,-53,-29,83,45,-58,35,24,-37,20
16,92,76,-54,-30,84,45,-58,35,24,-37,19
17,92,75,-54,-29,84,45,-57,37,25,-36,20
17,93,76,-55,-29,85,45,-56,39,27,-35,20
17,94,77,-55,-30,86,44,-56,40,27,-35,20
17,95,78,-56,-30,87,45,-55,42,30,-34,20
17,95,78,-56,-30,87,45,-54,45,32,-32,22
18,96,78,-57,-30,87,45,-53,46,34,-32,22
18,97,79,-57,-30,88,46,-52,48,36,-31,23
18,97,79,-57,-30,88,47,-49,50,37,-30,24
19,99,80,-59,-30,90,47,-48,51,38,-29,24
19,100,81,-59,-31,91,49,-46,54,40,-28,25
19,100,81,-59,-31,91,49,-45,57,42,-27,26
19,101,82,-60,-31,92,49,-44,59,43,-26,26
18,102,84,-60,-33,93,49,-43,62,45,-25,27
19,104,85,-61,-33,95,49,-43,64,46,-24,28
19,105,86,-62,-33,96,50,-41,66,49,-23,29
19,105,86,-62,-33,96,51,-40,68,52,-21,30
19,107,88,-63,-34,98,51,-39,69,53,-19,30
20,108,88,-64,-34,98,53,-36,72,56,-17,32
21,110,89,-65,-34,100,53,-34,74,59,-16,33
21,110,89,-65,-34,100,54,-31,78,62,-14,34
22,111,89,-66,-33,100,55,-30,80,64,-13,34
22,113,91,-67,-34,102,55,-28,83,66,-12,34
23,114,91,-68,-34,103,56,-26,87,70,-9,36
24,116,92,-70,-34,104,56,-26,90,73,-8,36
24,118,94,-71,-35,106,56,-24,92,76,-6,37
25,120,95,-72,-35,108,57,-23,95,79,-3,38
26,122,96,-74,-35,109,57,-21,99,83,-1,40
27,125,98,-76,-35,112,58,-19,103,86,2,42
27,127,100,-77,-36,114,59,-16,106,90,4,43
28,129,101,-78,-36,115,60,-13,111,93,7,45
29,132,103,-80,-37,118,61,-11,115,97,10,47
30,134,104,-82,-37,119,61,-10,119,101,12,48
30,137,107,-83,-38,122,62,-8,123,104,13,49
31,139,108,-85,-38,124,62,-6,127,108,15,51
31,142,111,-86,-40,127,62,-5,131,112,18,53
32,144,112,-88,-40,128,63,-3,135,116,20,55
32,147,115,-89,-41,131,63,-1,138,120,23,56
33,149,116,-91,-41,133,63,2,141,123,25,58
34,152,118,-93,-42,135,63,3,143,126,27,59
34,154,120,-94,-43,137,64,6,148,130,30,62
35,156,121,-95,-43,139,65,8,152,134,33,64
36,159,123,-97,-43,141,64,8,155,137,35,65
37,162,125,-99,-44,144,64,9,158,141,38,67
37,165,128,-101,-45,147,64,10,162,145,41,68
38,168,130,-103,-46,149,64,11,166,149,44,70
39,171,132,-105,-46,152,64,11,168,151,46,72
40,174,134,-107,-47,154,64,13,172,155,49,74
41,177,136,-109,-47,157,64,14,174,157,51,76
42,179,137,-110,-47,158,64,15,176,160,53,77
42,182,140,-112,-49,161,64,16,179,162,55,79
44,184,140,-114,-48,162,63,15,180,164,56,80
44,186,142,-115,-49,164,63,16,183,168,59,82
44,188,144,-116,-50,166,63,16,184,169,60,83
44,190,146,-117,-51,168,62,15,185,172,62,84
45,191,146,-118,-50,169,62,16,187,174,64,86
45,193,148,-119,-51,171,61,15,187,175,66,87
45,195,150,-120,-52,173,60,13,186,175,66,87
45,196,151,-120,-53,174,59,12,186,176,68,88
44,197,153,-120,-54,175,59,11,186,176,69,89
44,197,153,-120,-54,175,58,10,185,176,69,90
44,198,154,-121,-55,176,57,8,185,175,69,90
44,198,154,-121,-55,176,56,6,183,174,69,90
44,198,154,-121,-55,176,55,3,181,173,67,89
43,198,155,-120,-56,177,53,-1,178,170,66,88
43,196,153,-119,-55,175,52,-4,175,166,64,87
42,195,153,-118,-55,174,50,-7,169,161,61,85
42,194,152,-118,-55,173,49,-11,164,157,58,83
40,191,151,-115,-55,171,47,-15,158,151,54,81
38,188,150,-113,-56,169,46,-18,151,145,51,80
37,184,147,-110,-55,166,45,-21,143,139,47,77
36,180,144,-108,-54,162,43,-27,134,132,41,74
34,177,143,-105,-54,160,42,-31,125,125,36,71
32,172,140,-102,-54,156,40,-36,117,117,31,68
31,167,136,-99,-52,152,39,-41,109,110,27,65
30,163,133,-96,-51,148,37,-45,101,103,22,62
28,159,131,-93,-51,145,36,-48,94,95,17,59
27,155,128,-91,-50,142,35,-52,86,87,13,56
26,150,124,-88,-49,137,34,-55,79,80,8,53
25,146,121,-85,-48,134,32,-59,71,71,2,49
24,142,118,-83,-47,130,31,-62,64,64,-3,46
23,137,114,-80,-45,126,30,-65,56,57,-9,43
22,132,110,-77,-44,121,29,-68,49,49,-14,39
20,127,107,-73,-43,117,28,-72,42,43,-19,36
19,123,104,-71,-42,114,27,-75,35,37,-22,34
18,118,100,-68,-41,109,27,-78,29,32,-26,31
17,114,97,-65,-40,106,26,-81,23,26,-29,29
16,111,95,-63,-39,103,26,-84,16,21,-33,27
16,108,92,-62,-38,100,25,-86,10,16,-36,25
15,105,90,-60,-37,98,24,-88,5,10,-40,22
15,102,87,-58,-36,95,24,-90,0,6,-43,20
14,99,85,-56,-35,92,24,-90,-4,2,-45,19
14,96,82,-55,-34,89,23,-92,-7,-2,-48,17
13,94,81,-53,-34,88,22,-94,-10,-5,-51,15
13,91,78,-52,-32,85,22,-96,-13,-8,-53,14
13,89,76,-51,-31,83,21,-98,-17,-11,-56,12
13,88,75,-50,-31,82,21,-99,-19,-14,-57,11
12,86,74,-49,-31,80,21,-100,-22,-16,-58,11
12,84,72,-48,-30,78,20,-101,-26,-19,-61,9
11,83,72,-47,-30,78,21,-102,-28,-21,-62,8
11,82,71,-46,-30,77,20,-103,-31,-23,-64,7
11,81,70,-46,-29,76,20,-104,-32,-24,-64,7
11,79,68,-45,-28,74,20,-105,-34,-26,-66,5
11,78,67,-44,-28,73,20,-106,-34,-26,-66,5
11,77,66,-44,-27,72,19,-107,-35,-27,-67,4
12,76,64,-44,-26,70,18,-107,-36,-27,-67,4
12,75,63,-43,-25,69,18,-108,-37,-28,-68,4
12,74,62,-43,-25,68,19,-107,-37,-28,-68,4
11,74,63,-42,-26,69,19,-108,-38,-30,-69,3
11,73,62,-42,-25,68,18,-108,-39,-31,-70,2
11,73,62,-42,-25,68,18,-108,-40,-32,-71,2
10,72,62,-41,-26,67,19,-108,-40,-32,-70,2
10,72,62,-41,-26,67,19,-108,-41,-33,-71,1
10,71,61,-40,-25,66,18,-109,-42,-33,-72,1
10,71,61,-40,-25,66,18,-109,-43,-34,-71,1
10,71,61,-40,-25,66,18,-110,-43,-34,-71,1
10,71,61,-40,-25,66,18,-111,-44,-34,-71,2
10,71,61,-40,-25,66,18,-111,-44,-34,-71,2
10,71,61,-40,-25,66,18,-111,-44,-34,-71,2
10,70,60,-40,-25,65,19,-110,-44,-33,-70,3
10,70,60,-40,-25,65,19,-109,-44,-34,-71,3
10,70,60,-40,-25,65,18,-109,-44,-35,-71,2
9,69,60,-39,-25,65,18,-109,-44,-35,-72,2
9,69,60,-39,-25,65,17,-109,-45,-35,-73,1
9,69,60,-39,-25,65,17,-110,-45,-36,-73,0
9,69,60,-39,-25,65,17,-110,-45,-35,-73,0
8,69,61,-38,-26,65,18,-109,-45,-35,-72,1
8,69,61,-38,-26,65,18,-110,-45,-35,-72,0
8,69,61,-38,-26,65,19,-109,-45,-35,-72,1
8,70,62,-39,-27,66,18,-110,-46,-36,-73,0
8,70,62,-39,-27,66,18,-110,-46,-37,-73,0
8,70,62,-39,-27,66,19,-109,-45,-38,-73,0
8,70,62,-39,-27,66,19,-109,-45,-38,-73,0
8,70,62,-39,-27,66,19,-108,-44,-38,-73,0
8,70,62,-39,-27,66,18,-108,-44,-38,-73,0
9,70,61,-39,-26,66,18,-109,-44,-38,-73,0
9,71,62,-40,-26,67,18,-108,-45,-38,-73,0
9,72,63,-40,-27,68,17,-110,-46,-38,-73,-1
9,73,64,-41,-27,69,17,-110,-47,-38,-73,0
9,73,64,-41,-27,69,17,-110,-47,-37,-73,0
9,73,64,-41,-27,69,18,-110,-46,-37,-73,0
9,73,64,-41,-27,69,18,-109,-46,-37,-73,0
9,72,63,-40,-27,68,17,-109,-45,-36,-73,0
9,72,63,-40,-27,68,17,-109,-45,-36,-74,0
9,71,62,-40,-26,67,18,-107,-43,-35,-73,1
9,71,62,-40,-26,67,19,-107,-43,-36,-73,1
9,71,62,-40,-26,67,19,-107,-43,-35,-73,2
9,72,63,-40,-27,68,18,-108,-44,-36,-74,1
9,72,63,-40,-27,68,19,-109,-44,-37,-73,2
9,72,63,-40,-27,68,19,-109,-44,-37,-73,2
9,72,63,-40,-27,68,19,-109,-44,-37,-74,3
9,72,63,-40,-27,68,19,-109,-44,-37,-74,3
9,72,63,-40,-27,68,18,-109,-43,-37,-74,3
10,72,62,-41,-26,67,18,-109,-43,-37,-73,3
10,72,62,-41,-26,67,18,-109,-43,-36,-73,3
10,73,63,-41,-26,68,18,-109,-43,-36,-73,4
11,73,62,-42,-25,68,17,-109,-45,-37,-74,3
11,73,62,-42,-25,68,17,-109,-45,-37,-74,3
11,73,62,-42,-25,68,17,-109,-45,-37,-74,4
11,74,63,-42,-26,69,18,-108,-45,-37,-74,3
11,74,63,-42,-26,69,18,-108,-44,-37,-74,3
11,74,63,-42,-26,69,18,-107,-45,-38,-74,3
11,74,63,-42,-26,69,18,-108,-45,-38,-74,3
11,74,63,-42,-26,69,18,-108,-44,-38,-73,3
11,74,63,-42,-26,69,18,-109,-44,-38,-73,3
11,74,63,-42,-26,69,18,-109,-44,-38,-73,3
11,74,63,-42,-26,69,18,-110,-44,-38,-72,3
11,74,63,-42,-26,69,18,-111,-44,-38,-72,3
11,73,62,-42,-25,68,18,-111,-44,-38,-72,3
11,73,62,-42,-25,68,18,-112,-45,-38,-72,3
10,71,61,-40,-25,66,18,-111,-44,-37,-72,4
10,70,60,-40,-25,65,19,-109,-44,-36,-71,5
10,69,59,-39,-24,64,19,-109,-44,-36,-71,5
10,68,58,-39,-24,63,19,-109,-44,-36,-71,5
10,67,57,-38,-23,62,20,-108,-43,-35,-70,6
10,67,57,-38,-23,62,20,-108,-44,-35,-69,6
10,67,57,-38,-23,62,19,-108,-44,-36,-69,6
10,67,57,-38,-23,62,20,-108,-44,-36,-69,6
10,66,56,-38,-23,61,20,-108,-44,-36,-69,6
10,67,57,-38,-23,62,20,-107,-45,-37,-69,6
10,67,57,-38,-23,62,20,-107,-44,-37,-69,6
10,67,57,-38,-23,62,20,-107,-44,-37,-70,5
10,67,57,-38,-23,62,20,-108,-45,-37,-70,5
10,67,57,-38,-23,62,19,-108,-45,-37,-70,5
10,67,57,-38,-23,62,19,-108,-45,-38,-70,5
11,67,56,-39,-22,62,18,-110,-46,-39,-71,4
10,67,57,-38,-23,62,19,-110,-46,-39,-70,5
10,67,57,-38,-23,62,19,-111,-48,-40,-71,5
10,67,57,-38,-23,62,19,-111,-48,-40,-71,5
10,67,57,-38,-23,62,18,-111,-49,-40,-71,5
10,66,56,-38,-23,61,18,-112,-49,-41,-71,4
9,66,57,-37,-24,62,17,-112,-50,-41,-72,4
9,66,57,-37,-24,62,17,-112,-49,-41,-72,4
9,66,57,-37,-24,62,16,-112,-49,-41,-72,4
8,65,57,-36,-24,61,17,-111,-48,-40,-71,5
8,65,57,-36,-24,61,17,-111,-48,-40,-71,5
8,65,57,-36,-24,61,17,-111,-49,-41,-71,6
8,65,57,-36,-24,61,17,-111,-49,-41,-71,6
8,65,57,-36,-24,61,17,-111,-50,-41,-71,6
8,66,58,-37,-25,62,17,-111,-50,-41,-71,6
9,66,57,-37,-24,62,17,-112,-52,-42,-72,5
9,66,57,-37,-24,62,17,-112,-51,-42,-72,5
9,66,57,-37,-24,62,17,-112,-51,-42,-73,4
9,66,57,-37,-24,62,17,-112,-51,-42,-73,4
9,66,57,-37,-24,62,16,-113,-51,-42,-73,3
9,66,57,-37,-24,62,16,-113,-51,-43,-74,3
9,65,56,-37,-23,61,17,-112,-50,-42,-73,4
9,65,56,-37,-23,61,17,-113,-51,-42,-73,4
8,65,57,-36,-24,61,17,-113,-52,-43,-73,4
8,65,57,-36,-24,61,18,-113,-53,-44,-73,4
9,65,56,-37,-23,61,18,-113,-54,-44,-73,4
9,65,56,-37,-23,61,18,-114,-55,-45,-73,4
9,65,56,-37,-23,61,18,-114,-55,-45,-73,4
9,64,55,-36,-23,60,18,-115,-56,-45,-74,4
9,64,55,-36,-23,60,18,-115,-56,-45,-73,4
10,64,54,-37,-22,59,18,-114,-55,-45,-73,4
10,64,54,-37,-22,59,19,-114,-55,-44,-74,4
10,64,54,-37,-22,59,19,-113,-54,-44,-74,4
10,64,54,-37,-22,59,19,-113,-54,-44,-74,4
10,64,54,-37,-22,59,19,-113,-54,-44,-74,4
10,64,54,-37,-22,59,18,-113,-54,-45,-75,4
10,64,54,-37,-22,59,18,-113,-54,-45,-75,4
10,64,54,-37,-22,59,18,-114,-54,-45,-75,4
9,64,55,-36,-23,60,17,-114,-55,-46,-75,4
9,64,55,-36,-23,60,16,-115,-56,-46,-75,4
9,64,55,-36,-23,60,16,-115,-56,-46,-75,4
9,64,55,-36,-23,60,16,-115,-56,-46,-75,4
9,64,55,-36,-23,60,16,-115,-57,-46,-75,4
9,64,55,-36,-23,60,16,-115,-57,-47,-75,4
9,64,55,-36,-23,60,16,-114,-57,-47,-75,4
9,64,55,-36,-23,60,16,-114,-57,-47,-75,4
10,64,54,-37,-22,59,16,-114,-56,-47,-75,4
10,63,53,-36,-21,58,16,-114,-56,-48,-75,4
10,63,53,-36,-21,58,16,-114,-56,-48,-75,4
10,63,53,-36,-21,58,17,-114,-56,-48,-75,4
10,63,53,-36,-21,58,17,-115,-56,-48,-75,4
10,63,53,-36,-21,58,17,-115,-56,-48,-75,4
10,64,54,-37,-22,59,17,-116,-57,-49,-75,4
9,64,55,-36,-23,60,17,-115,-57,-49,-75,4
9,64,55,-36,-23,60,17,-115,-57,-49,-75,4
9,65,56,-37,-23,61,17,-115,-57,-50,-75,4
9,65,56,-37,-23,61,17,-115,-58,-50,-76,3
9,65,56,-37,-23,61,17,-115,-58,-50,-76,3
9,65,56,-37,-23,61,17,-115,-57,-50,-76,4
9,65,56,-37,-23,61,17,-115,-57,-50,-75,4
9,64,55,-36,-23,60,17,-115,-57,-50,-75,4
9,64,55,-36,-23,60,17,-115,-57,-50,-75,4
9,64,55,-36,-23,60,17,-115,-56,-50,-75,4
9,64,55,-36,-23,60,16,-115,-57,-50,-75,4
10,64,54,-37,-22,59,16,-115,-57,-50,-75,3
9,64,55,-36,-23,60,16,-115,-57,-50,-75,3
9,64,55,-36,-23,60,16,-115,-58,-50,-76,3
10,65,55,-37,-22,60,15,-116,-58,-51,-77,2
10,65,55,-37,-22,60,15,-116,-58,-50,-77,1
9,65,56,-37,-23,61,16,-116,-57,-49,-77,2
9,64,55,-36,-23,60,15,-116,-57,-49,-77,2
9,64,55,-36,-23,60,15,-116,-57,-49,-77,2
9,64,55,-36,-23,60,15,-116,-57,-49,-77,2
9,64,55,-36,-23,60,15,-116,-58,-50,-77,2
9,64,55,-36,-23,60,14,-117,-59,-50,-77,2
9,64,55,-36,-23,60,14,-117,-60,-50,-77,2
10,64,54,-37,-22,59,15,-117,-60,-51,-77,2
9,64,55,-36,-23,60,14,-117,-60,-51,-78,2
9,64,55,-36,-23,60,14,-118,-59,-51,-78,1
9,64,55,-36,-23,60,14,-117,-59,-51,-78,1
9,64,55,-36,-23,60,14,-117,-59,-51,-78,1
9,64,55,-36,-23,60,15,-117,-59,-51,-78,1
8,64,56,-36,-24,60,15,-116,-59,-50,-78,1
9,65,56,-37,-23,61,15,-116,-59,-50,-78,0
9,65,56,-37,-23,61,15,-115,-59,-51,-78,1
8,65,57,-36,-24,61,15,-115,-59,-51,-78,1
"
		8","
		65","
		57","
		-36","
		-24","
		61","
		15","
		-115","
		-59","
		-51","
		-78","
		1"
8,66,58,-37,-25,62,15,-115,-59,-51,-78,1
9,65,56,-37,-23,61,15,-115,-59,-51,-79,1
8,65,57,-36,-24,61,15,-116,-60,-52,-79,0
8,64,56,-36,-24,60,15,-116,-61,-51,-79,0
8,64,56,-36,-24,60,15,-117,-61,-51,-79,0
8,64,56,-36,-24,60,16,-117,-61,-51,-78,1
8,64,56,-36,-24,60,16,-116,-61,-52,-78,1
8,64,56,-36,-24,60,16,-116,-61,-52,-78,1
8,64,56,-36,-24,60,16,-116,-60,-52,-78,1
8,64,56,-36,-24,60,16,-115,-60,-52,-78,1
8,64,56,-36,-24,60,16,-115,-60,-52,-79,1
8,64,56,-36,-24,60,16,-116,-60,-53,-79,0
9,64,55,-36,-23,60,16,-116,-60,-53,-79,0
9,65,56,-37,-23,61,16,-116,-60,-53,-79,0
9,65,56,-37,-23,61,16,-116,-60,-53,-78,0
9,65,56,-37,-23,61,16,-116,-61,-53,-78,0
9,66,57,-37,-24,62,15,-117,-62,-54,-79,-1
9,66,57,-37,-24,62,15,-117,-62,-54,-80,0
9,66,57,-37,-24,62,15,-117,-62,-54,-80,0
10,66,56,-38,-23,61,15,-116,-62,-54,-80,0
10,66,56,-38,-23,61,15,-116,-62,-54,-80,0
10,66,56,-38,-23,61,15,-116,-62,-53,-80,1
11,66,55,-38,-22,61,15,-116,-62,-53,-80,1
11,66,55,-38,-22,61,15,-116,-62,-53,-79,2
11,66,55,-38,-22,61,15,-116,-62,-53,-79,2
11,66,55,-38,-22,61,15,-116,-62,-52,-79,2
11,66,55,-38,-22,61,15,-116,-62,-52,-79,2
11,66,55,-38,-22,61,15,-116,-62,-52,-79,2
11,66,55,-38,-22,61,15,-116,-62,-52,-80,2
10,66,56,-38,-23,61,15,-116,-62,-52,-80,2
10,66,56,-38,-23,61,15,-116,-61,-52,-80,2
10,66,56,-38,-23,61,15,-116,-60,-52,-80,2
10,66,56,-38,-23,61,15,-117,-60,-52,-80,2
10,65,55,-37,-22,60,15,-117,-60,-52,-80,2
10,66,56,-38,-23,61,15,-117,-60,-52,-80,3
9,66,57,-37,-24,62,15,-116,-60,-51,-79,3
10,66,56,-38,-23,61,15,-116,-60,-51,-79,3
10,66,56,-38,-23,61,15,-116,-60,-52,-79,3
10,66,56,-38,-23,61,15,-116,-60,-52,-80,2
10,66,56,-38,-23,61,15,-116,-60,-53,-80,2
10,66,56,-38,-23,61,15,-116,-60,-53,-80,2
10,66,56,-38,-23,61,15,-117,-61,-53,-80,2
10,66,56,-38,-23,61,15,-118,-62,-53,-81,2
10,66,56,-38,-23,61,15,-119,-62,-53,-81,2
11,66,55,-38,-22,61,15,-120,-63,-53,-81,2
11,66,55,-38,-22,61,15,-120,-63,-53,-81,2
11,66,55,-38,-22,61,15,-120,-63,-53,-81,2
11,66,55,-38,-22,61,15,-120,-64,-53,-81,2
10,66,56,-38,-23,61,15,-118,-63,-53,-80,2
10,66,56,-38,-23,61,15,-118,-63,-54,-80,2
10,67,57,-38,-23,62,15,-117,-63,-54,-81,2
10,67,57,-38,-23,62,14,-117,-62,-54,-81,2
10,67,57,-38,-23,62,14,-117,-62,-53,-80,2
10,67,57,-38,-23,62,14,-117,-61,-53,-80,3
10,67,57,-38,-23,62,15,-117,-61,-53,-80,3
11,67,56,-39,-22,62,14,-118,-62,-54,-81,2
11,68,57,-39,-23,63,14,-118,-62,-54,-80,2
11,68,57,-39,-23,63,14,-118,-62,-55,-80,2
11,68,57,-39,-23,63,14,-117,-62,-55,-81,2
11,68,57,-39,-23,63,14,-117,-63,-55,-81,2
11,68,57,-39,-23,63,14,-117,-63,-55,-81,2
10,67,57,-38,-23,62,15,-117,-63,-54,-80,2
10,67,57,-38,-23,62,15,-117,-63,-54,-80,2
10,67,57,-38,-23,62,16,-117,-63,-54,-80,3
10,66,56,-38,-23,61,15,-117,-63,-53,-79,3
10,66,56,-38,-23,61,15,-117,-62,-53,-79,3
10,67,57,-38,-23,62,15,-117,-61,-53,-80,3
10,67,57,-38,-23,62,15,-116,-61,-53,-80,3
10,68,58,-39,-24,63,14,-117,-61,-54,-81,2
11,68,57,-39,-23,63,14,-117,-61,-53,-81,3
11,68,57,-39,-23,63,15,-117,-61,-54,-81,3
11,68,57,-39,-23,63,15,-116,-61,-54,-81,3
11,68,57,-39,-23,63,15,-117,-61,-53,-81,3
11,68,57,-39,-23,63,16,-117,-62,-54,-81,3
11,68,57,-39,-23,63,16,-118,-63,-54,-81,3
11,68,57,-39,-23,63,15,-118,-63,-55,-81,3
11,68,57,-39,-23,63,15,-118,-63,-55,-81,2
11,67,56,-39,-22,62,15,-118,-63,-56,-81,2
11,67,56,-39,-22,62,15,-118,-63,-56,-81,2
11,67,56,-39,-22,62,14,-117,-63,-56,-81,2
11,67,56,-39,-22,62,14,-117,-63,-55,-81,2
11,66,55,-38,-22,61,15,-117,-62,-54,-81,3
10,66,56,-38,-23,61,14,-118,-62,-55,-81,3
10,67,57,-38,-23,62,14,-118,-62,-55,-81,3
10,67,57,-38,-23,62,14,-118,-62,-55,-81,4
10,67,57,-38,-23,62,14,-118,-62,-55,-81,3
10,67,57,-38,-23,62,14,-118,-63,-55,-82,3
9,67,58,-38,-24,63,14,-118,-64,-56,-83,3
9,67,58,-38,-24,63,14,-118,-65,-56,-83,3
8,67,59,-37,-25,63,14,-118,-65,-56,-83,3
8,67,59,-37,-25,63,15,-118,-65,-55,-83,2
8,66,58,-37,-25,62,16,-116,-64,-54,-82,3
8,66,58,-37,-25,62,16,-116,-63,-54,-81,3
9,66,57,-37,-24,62,15,-117,-63,-55,-82,3
10,67,57,-38,-23,62,16,-117,-62,-55,-81,3
10,67,57,-38,-23,62,16,-118,-63,-55,-81,3
10,67,57,-38,-23,62,16,-118,-63,-56,-81,3
10,67,57,-38,-23,62,15,-118,-63,-56,-81,3
11,67,56,-39,-22,62,14,-118,-63,-56,-82,3
11,67,56,-39,-22,62,14,-118,-63,-56,-83,3
11,67,56,-39,-22,62,14,-118,-62,-56,-83,3
12,67,55,-39,-21,61,14,-118,-62,-56,-83,3
12,67,55,-39,-21,61,14,-118,-62,-56,-84,3
12,66,54,-39,-21,60,13,-118,-63,-56,-84,2
12,66,54,-39,-21,60,14,-118,-63,-57,-85,2
11,67,56,-39,-22,62,14,-118,-63,-57,-85,3
11,67,56,-39,-22,62,14,-118,-63,-57,-85,3
11,67,56,-39,-22,62,14,-117,-63,-57,-85,3
11,68,57,-39,-23,63,15,-117,-63,-57,-85,3
11,68,57,-39,-23,63,15,-116,-63,-57,-84,3
12,69,57,-40,-22,63,14,-117,-64,-58,-85,2
12,68,56,-40,-22,62,15,-116,-63,-57,-84,3
12,68,56,-40,-22,62,15,-117,-63,-57,-84,3
12,68,56,-40,-22,62,15,-117,-64,-57,-84,2
12,67,55,-39,-21,61,15,-118,-64,-58,-84,2
12,67,55,-39,-21,61,14,-118,-64,-58,-85,2
12,67,55,-39,-21,61,14,-118,-64,-58,-85,2
12,66,54,-39,-21,60,14,-119,-64,-58,-85,2
11,66,55,-38,-22,61,15,-117,-63,-58,-84,3
11,66,55,-38,-22,61,15,-117,-63,-58,-84,3
11,66,55,-38,-22,61,15,-117,-63,-58,-84,3
11,66,55,-38,-22,61,15,-117,-62,-57,-83,3
11,66,55,-38,-22,61,15,-117,-62,-57,-83,3
10,66,56,-38,-23,61,15,-117,-63,-57,-83,3
11,67,56,-39,-22,62,14,-117,-64,-57,-84,3
11,67,56,-39,-22,62,15,-117,-64,-56,-83,3
12,67,55,-39,-21,61,15,-116,-64,-56,-83,3
11,67,56,-39,-22,62,15,-116,-64,-56,-84,3
11,67,56,-39,-22,62,15,-116,-64,-56,-84,3
12,67,55,-39,-21,61,15,-116,-63,-56,-84,3
12,67,55,-39,-21,61,15,-116,-63,-56,-84,3
11,67,56,-39,-22,62,14,-117,-63,-57,-85,3
11,67,56,-39,-22,62,14,-118,-63,-58,-85,3
10,67,57,-38,-23,62,15,-118,-62,-57,-84,3
10,67,57,-38,-23,62,15,-118,-62,-57,-84,4
10,67,57,-38,-23,62,15,-118,-62,-57,-84,3
9,67,58,-38,-24,63,15,-118,-62,-57,-84,3
9,67,58,-38,-24,63,15,-117,-62,-57,-84,3
9,66,57,-37,-24,62,15,-116,-62,-57,-84,3
9,66,57,-37,-24,62,15,-116,-62,-57,-85,3
9,66,57,-37,-24,62,15,-117,-62,-57,-85,3
9,66,57,-37,-24,62,15,-117,-63,-58,-84,3
9,66,57,-37,-24,62,15,-117,-63,-58,-84,4
10,66,56,-38,-23,61,15,-118,-63,-58,-84,3
10,66,56,-38,-23,61,15,-118,-64,-58,-83,3
10,66,56,-38,-23,61,15,-119,-64,-58,-84,2
10,66,56,-38,-23,61,15,-118,-65,-59,-85,2
9,66,57,-37,-24,62,15,-118,-65,-59,-86,1
10,66,56,-38,-23,61,14,-118,-64,-59,-86,1
10,66,56,-38,-23,61,14,-117,-64,-59,-86,1
9,66,57,-37,-24,62,14,-117,-63,-59,-87,1
9,66,57,-37,-24,62,14,-117,-63,-58,-86,2
10,66,56,-38,-23,61,13,-117,-63,-58,-85,3
10,67,57,-38,-23,62,13,-117,-63,-58,-85,3
10,67,57,-38,-23,62,13,-117,-63,-58,-85,4
10,67,57,-38,-23,62,13,-117,-64,-57,-85,4
10,67,57,-38,-23,62,13,-117,-64,-56,-84,5
11,68,57,-39,-23,63,13,-117,-64,-56,-84,4
11,67,56,-39,-22,62,13,-117,-64,-56,-84,3
10,67,57,-38,-23,62,14,-117,-63,-56,-84,4
10,66,56,-38,-23,61,14,-117,-63,-56,-84,3
10,66,56,-38,-23,61,14,-117,-62,-56,-84,3
10,65,55,-37,-22,60,14,-118,-63,-56,-85,1
9,64,55,-36,-23,60,15,-117,-62,-56,-85,2
8,64,56,-36,-24,60,14,-117,-62,-55,-84,2
9,66,57,-37,-24,62,13,-118,-63,-56,-84,1
9,66,57,-37,-24,62,13,-118,-63,-56,-84,2
9,66,57,-37,-24,62,13,-118,-64,-56,-85,2
9,66,57,-37,-24,62,12,-118,-65,-57,-85,2
9,67,58,-38,-24,63,12,-117,-64,-56,-85,3
10,67,57,-38,-23,62,12,-117,-64,-56,-85,3
10,66,56,-38,-23,61,12,-117,-64,-56,-85,3
10,67,57,-38,-23,62,12,-117,-64,-56,-84,3
11,67,56,-39,-22,62,11,-118,-64,-56,-85,3
11,67,56,-39,-22,62,12,-117,-63,-55,-84,3
11,67,56,-39,-22,62,12,-117,-63,-56,-85,2
11,67,56,-39,-22,62,13,-117,-64,-57,-85,2
11,67,56,-39,-22,62,12,-117,-64,-57,-85,2
11,67,56,-39,-22,62,12,-117,-64,-57,-86,1
10,67,57,-38,-23,62,14,-117,-63,-56,-86,1
10,66,56,-38,-23,61,14,-117,-64,-56,-86,1
10,66,56,-38,-23,61,14,-117,-64,-56,-86,2
11,67,56,-39,-22,62,13,-118,-64,-56,-86,1
11,67,56,-39,-22,62,12,-119,-64,-56,-86,2
11,67,56,-39,-22,62,12,-119,-64,-56,-85,2
11,67,56,-39,-22,62,12,-119,-64,-56,-84,2
11,67,56,-39,-22,62,12,-118,-63,-55,-83,3
11,68,57,-39,-23,63,12,-118,-63,-55,-83,4
11,68,57,-39,-23,63,11,-118,-63,-56,-84,3
11,67,56,-39,-22,62,11,-118,-62,-56,-84,3
11,67,56,-39,-22,62,11,-117,-62,-55,-84,2
11,67,56,-39,-22,62,11,-117,-62,-56,-84,2
11,67,56,-39,-22,62,10,-117,-62,-56,-84,1
11,66,55,-38,-22,61,11,-117,-61,-54,-82,2
11,66,55,-38,-22,61,12,-117,-62,-54,-82,1
11,66,55,-38,-22,61,12,-117,-63,-55,-83,1
10,66,56,-38,-23,61,11,-117,-63,-55,-84,1
10,66,56,-38,-23,61,11,-117,-63,-55,-83,1
10,66,56,-38,-23,61,11,-117,-63,-55,-84,1
10,66,56,-38,-23,61,11,-117,-62,-55,-84,1
10,67,57,-38,-23,62,12,-117,-61,-55,-83,2
10,67,57,-38,-23,62,12,-117,-60,-54,-82,3
10,68,58,-39,-24,63,11,-118,-60,-55,-83,2
10,68,58,-39,-24,63,12,-118,-60,-55,-82,3
10,69,59,-39,-24,64,12,-118,-59,-54,-81,3
10,69,59,-39,-24,64,12,-118,-60,-54,-81,3
10,69,59,-39,-24,64,12,-118,-60,-55,-81,3
10,70,60,-40,-25,65,12,-118,-60,-55,-81,3
11,71,60,-41,-24,66,11,-118,-60,-55,-82,3
11,72,61,-41,-25,67,12,-117,-59,-54,-81,3
12,72,60,-42,-24,66,11,-117,-59,-55,-82,2
12,73,61,-42,-24,67,11,-116,-59,-54,-82,2
13,74,61,-43,-24,68,12,-116,-58,-54,-83,2
14,75,61,-44,-23,68,13,-115,-57,-54,-82,2
14,76,62,-45,-24,69,12,-115,-58,-54,-83,2
14,77,63,-45,-24,70,13,-114,-57,-54,-82,2
14,77,63,-45,-24,70,14,-113,-57,-53,-81,3
14,78,64,-46,-25,71,15,-113,-56,-52,-80,4
13,78,65,-45,-26,72,15,-113,-57,-52,-80,4
13,78,65,-45,-26,72,15,-114,-57,-52,-79,5
13,77,64,-45,-25,71,15,-115,-58,-52,-79,5
13,75,62,-44,-24,69,15,-114,-57,-51,-79,5
13,74,61,-43,-24,68,15,-114,-56,-51,-79,5
13,73,60,-43,-23,67,16,-112,-55,-50,-78,6
14,73,59,-43,-22,66,15,-112,-55,-51,-79,6
15,74,59,-44,-22,67,15,-111,-53,-50,-78,6
15,74,59,-44,-22,67,16,-109,-53,-50,-78,6
16,75,59,-45,-21,67,15,-109,-52,-50,-79,5
17,77,60,-47,-21,69,14,-110,-52,-50,-79,5
18,77,59,-47,-20,68,14,-110,-52,-49,-78,5
18,77,59,-47,-20,68,12,-110,-53,-50,-78,5
18,76,58,-47,-20,67,11,-112,-55,-51,-79,5
18,76,58,-47,-20,67,10,-114,-56,-51,-79,6
18,75,57,-46,-19,66,9,-116,-58,-51,-80,6
17,74,57,-45,-20,66,8,-117,-59,-52,-80,6
16,74,58,-45,-21,66,7,-118,-60,-53,-81,6
16,73,57,-44,-20,65,8,-117,-59,-51,-80,6
17,73,56,-45,-19,65,8,-118,-59,-52,-81,5
17,72,55,-44,-19,64,9,-116,-56,-51,-80,6
18,72,54,-45,-18,63,9,-117,-56,-52,-81,5
18,72,54,-45,-18,63,9,-116,-56,-51,-81,6
19,73,54,-46,-17,64,10,-116,-55,-50,-80,7
20,74,54,-47,-17,64,10,-116,-56,-50,-80,7
20,75,55,-47,-17,65,10,-116,-56,-49,-79,8
20,75,55,-47,-17,65,9,-116,-56,-49,-79,8
20,76,56,-48,-18,66,8,-117,-58,-50,-80,8
20,75,55,-47,-17,65,8,-115,-58,-49,-79,9
19,74,55,-46,-18,65,7,-116,-59,-50,-80,8
17,72,55,-44,-19,64,8,-115,-59,-50,-80,8
16,71,55,-43,-19,63,7,-117,-60,-53,-82,6
15,70,55,-42,-20,63,8,-117,-60,-54,-83,5
13,69,56,-41,-21,63,9,-117,-60,-54,-84,4
12,68,56,-40,-22,62,9,-117,-60,-55,-84,3
11,68,57,-39,-23,63,10,-118,-61,-57,-85,3
11,67,56,-39,-22,62,10,-119,-61,-58,-86,2
10,67,57,-38,-23,62,11,-119,-61,-58,-86,3
11,67,56,-39,-22,62,10,-121,-63,-59,-87,2
11,67,56,-39,-22,62,11,-121,-64,-59,-86,2
12,67,55,-39,-21,61,11,-121,-64,-58,-86,2
12,68,56,-40,-22,62,10,-121,-65,-58,-86,2
12,68,56,-40,-22,62,10,-121,-65,-57,-86,2
12,68,56,-40,-22,62,10,-120,-65,-57,-85,2
12,68,56,-40,-22,62,10,-119,-64,-56,-86,2
11,68,57,-39,-23,63,9,-119,-64,-56,-86,2
12,67,55,-39,-21,61,9,-119,-64,-56,-85,2
12,67,55,-39,-21,61,9,-119,-63,-57,-85,2
12,67,55,-39,-21,61,9,-120,-63,-57,-86,1
12,67,55,-39,-21,61,10,-120,-63,-57,-86,1
12,68,56,-40,-22,62,10,-120,-63,-57,-86,2
12,68,56,-40,-22,62,11,-120,-63,-57,-86,2
11,68,57,-39,-23,63,11,-120,-64,-58,-87,1
11,68,57,-39,-23,63,11,-120,-64,-58,-87,2
12,68,56,-40,-22,62,11,-120,-64,-58,-87,2
12,68,56,-40,-22,62,11,-120,-64,-58,-87,2
12,68,56,-40,-22,62,10,-120,-64,-58,-86,2
12,68,56,-40,-22,62,10,-120,-63,-58,-86,2
12,69,57,-40,-22,63,10,-121,-65,-59,-86,1
12,69,57,-40,-22,63,10,-120,-65,-58,-86,1
12,69,57,-40,-22,63,10,-120,-66,-59,-86,1
13,69,56,-41,-21,63,10,-119,-66,-59,-86,1
13,70,57,-41,-22,64,11,-119,-66,-58,-86,2
13,70,57,-41,-22,64,11,-118,-65,-57,-85,2
14,71,57,-42,-21,64,10,-120,-65,-58,-86,2
13,71,58,-42,-22,65,10,-120,-64,-58,-86,2
13,71,58,-42,-22,65,11,-119,-63,-57,-86,1
13,71,58,-42,-22,65,11,-119,-62,-57,-85,1
13,71,58,-42,-22,65,11,-118,-61,-56,-86,1
12,71,59,-41,-23,65,13,-116,-59,-55,-85,1
12,70,58,-41,-23,64,14,-115,-58,-55,-86,0
12,69,57,-40,-22,63,16,-113,-57,-55,-86,-1
12,68,56,-40,-22,62,19,-109,-53,-53,-86,-1
12,67,55,-39,-21,61,21,-106,-50,-52,-88,-3
13,66,53,-39,-20,60,23,-103,-47,-51,-89,-5
13,65,52,-39,-19,59,26,-99,-44,-49,-89,-6
14,65,51,-39,-18,58,28,-95,-39,-45,-87,-6
15,66,51,-40,-18,59,30,-92,-33,-39,-85,-5
17,69,52,-43,-17,61,31,-88,-25,-31,-80,-2
20,73,53,-46,-16,63,32,-84,-17,-24,-75,1
23,77,54,-50,-15,66,34,-77,-4,-11,-67,6
"
		27","
		82","
		55","
		-54","
		-14","
		69","
		38","
		-67","
		13","
		4","
		-57","
		11"
30,90,60,-60,-15,75,42,-56,33,23,-45,19
34,102,68,-68,-17,85,44,-47,54,44,-29,30
38,118,80,-78,-21,99,43,-41,75,67,-9,43
43,140,97,-91,-27,119,35,-44,92,93,14,60
48,169,121,-108,-36,145,18,-57,105,121,43,81
55,202,147,-128,-46,175,-8,-82,110,147,73,105
61,238,177,-149,-58,208,-43,-117,105,169,103,129
65,270,205,-167,-70,238,-79,-158,95,190,132,152
67,298,231,-182,-82,265,-114,-203,82,205,155,170
64,317,253,-190,-94,285,-142,-246,64,214,171,183
58,326,268,-192,-105,297,-161,-284,42,211,176,188
48,323,275,-185,-113,299,-170,-313,15,196,169,185
37,308,271,-172,-117,290,-172,-335,-22,163,148,172
24,283,259,-153,-117,271,-166,-348,-66,116,116,153
10,252,242,-131,-116,247,-153,-351,-117,55,73,126
-4,217,221,-106,-112,219,-137,-346,-167,-12,24,95
-15,181,196,-83,-105,189,-121,-337,-212,-74,-24,64
-24,149,173,-62,-98,161,-106,-325,-246,-126,-67,37
-30,123,153,-46,-91,138,-94,-313,-267,-165,-103,12
-35,103,138,-34,-86,121,-82,-299,-274,-186,-126,-6
-35,89,124,-27,-79,107,-77,-289,-271,-193,-140,-18
-31,80,111,-24,-71,96,-75,-278,-259,-189,-144,-23
-25,75,100,-25,-62,88,-72,-266,-243,-179,-142,-25
-19,70,89,-25,-54,80,-67,-252,-225,-167,-140,-26
-13,65,78,-26,-45,72,-59,-234,-204,-152,-134,-25
-7,60,67,-26,-37,64,-49,-214,-183,-137,-126,-22
-1,57,58,-28,-29,58,-38,-194,-163,-124,-120,-20
3,54,51,-28,-24,53,-26,-175,-143,-110,-115,-18
7,53,46,-30,-19,50,-13,-157,-125,-97,-108,-16
10,55,45,-32,-17,50,-2,-141,-106,-85,-101,-12
12,59,47,-35,-17,53,8,-127,-88,-72,-94,-7
14,65,51,-39,-18,58,15,-116,-72,-62,-88,-4
15,72,57,-43,-21,65,19,-108,-59,-53,-83,0
16,79,63,-47,-23,71,22,-102,-47,-45,-77,5
17,85,68,-51,-25,77,22,-100,-40,-39,-73,7
17,90,73,-53,-28,82,23,-97,-34,-35,-70,10
16,93,77,-54,-30,85,23,-96,-31,-33,-68,11
15,95,80,-55,-32,88,23,-96,-29,-31,-67,13
15,95,80,-55,-32,88,23,-95,-27,-30,-66,13
14,95,81,-54,-33,88,23,-94,-26,-29,-67,12
14,94,80,-54,-33,87,24,-93,-25,-29,-67,11
15,94,79,-54,-32,87,25,-92,-23,-28,-67,10
15,94,79,-54,-32,87,25,-92,-22,-27,-67,10
15,93,78,-54,-31,86,26,-91,-21,-27,-67,9
15,94,79,-54,-32,87,27,-90,-20,-26,-66,10
15,94,79,-54,-32,87,28,-88,-19,-25,-64,11
15,95,80,-55,-32,88,29,-87,-18,-25,-64,12
15,95,80,-55,-32,88,30,-86,-17,-26,-64,12
15,95,80,-55,-32,88,30,-84,-16,-25,-63,12
16,95,79,-55,-31,87,30,-84,-15,-24,-64,12
17,95,78,-56,-30,87,30,-84,-14,-23,-64,11
17,96,79,-56,-31,88,31,-83,-12,-23,-64,11
18,96,78,-57,-30,87,30,-84,-12,-22,-64,11
18,96,78,-57,-30,87,30,-84,-11,-20,-63,12
18,97,79,-57,-30,88,31,-84,-11,-20,-62,12
18,97,79,-57,-30,88,31,-83,-10,-20,-61,13
18,98,80,-58,-31,89,32,-82,-10,-19,-61,14
18,98,80,-58,-31,89,33,-81,-9,-18,-61,14
18,99,81,-58,-31,90,32,-81,-9,-18,-61,14
18,99,81,-58,-31,90,32,-80,-7,-17,-61,15
19,100,81,-59,-31,91,33,-79,-5,-16,-60,15
19,100,81,-59,-31,91,33,-79,-5,-15,-59,15
19,100,81,-59,-31,91,33,-79,-4,-15,-57,16
19,100,81,-59,-31,91,33,-79,-4,-14,-56,17
20,100,80,-60,-30,90,32,-80,-5,-16,-56,16
19,100,81,-59,-31,91,34,-78,-4,-15,-54,17
19,100,81,-59,-31,91,34,-77,-4,-14,-52,17
19,100,81,-59,-31,91,35,-76,-3,-13,-52,18
19,100,81,-59,-31,91,35,-75,-1,-11,-51,18
19,100,81,-59,-31,91,35,-74,1,-11,-50,18
20,100,80,-60,-30,90,34,-75,1,-10,-49,18
20,101,81,-60,-30,91,34,-75,3,-8,-48,19
21,102,81,-61,-30,92,34,-75,4,-9,-50,19
21,103,82,-62,-30,93,35,-74,4,-9,-51,20
22,104,82,-63,-30,93,35,-75,4,-8,-53,19
22,105,83,-63,-30,94,35,-74,5,-8,-54,19
21,106,85,-63,-32,96,36,-73,6,-7,-56,19
21,106,85,-63,-32,96,36,-72,7,-6,-56,19
21,107,86,-64,-32,97,37,-71,9,-5,-56,19
21,106,85,-63,-32,96,37,-70,10,-4,-56,19
20,106,86,-63,-33,96,37,-70,12,-3,-56,18
21,107,86,-64,-32,97,37,-69,14,-1,-54,19
22,107,85,-64,-31,96,37,-70,14,0,-54,19
22,108,86,-65,-32,97,38,-69,16,1,-53,19
22,108,86,-65,-32,97,38,-68,17,3,-52,20
23,109,86,-66,-31,98,38,-68,17,4,-51,20
23,110,87,-66,-32,99,39,-66,18,6,-49,22
24,110,86,-67,-31,98,39,-64,20,6,-49,22
23,110,87,-66,-32,99,39,-64,21,7,-49,22
23,111,88,-67,-32,100,40,-63,22,8,-48,22
24,111,87,-67,-31,99,39,-63,22,8,-48,21
25,112,87,-68,-31,100,39,-63,24,9,-47,22
25,113,88,-69,-31,101,39,-63,24,10,-47,22
25,114,89,-69,-32,102,40,-62,26,12,-45,23
25,115,90,-70,-32,103,41,-60,28,14,-43,25
25,117,92,-71,-33,105,41,-60,28,15,-43,26
26,117,91,-71,-32,104,42,-58,29,16,-42,27
26,118,92,-72,-33,105,42,-57,30,17,-42,26
25,119,94,-72,-34,107,42,-56,32,19,-40,27
26,119,93,-72,-33,106,43,-55,35,21,-39,28
26,119,93,-72,-33,106,44,-54,38,23,-38,29
26,120,94,-73,-34,107,45,-53,41,25,-37,30
27,121,94,-74,-33,108,45,-53,42,26,-36,30
27,122,95,-74,-34,109,45,-51,45,28,-34,31
27,123,96,-75,-34,110,45,-50,46,29,-33,31
27,124,97,-75,-35,111,46,-48,48,31,-31,33
27,125,98,-76,-35,112,47,-46,50,33,-29,34
27,126,99,-76,-36,113,47,-45,52,34,-28,33
28,127,99,-77,-35,113,49,-42,55,36,-27,34
28,128,100,-78,-36,114,48,-41,57,37,-26,34
29,129,100,-79,-35,115,49,-40,60,39,-24,35
29,130,101,-79,-36,116,49,-40,62,41,-24,35
30,130,100,-80,-35,115,50,-39,64,43,-22,37
31,132,101,-81,-35,117,50,-39,65,45,-21,37
31,134,103,-82,-36,119,49,-39,67,47,-21,38
31,135,104,-83,-36,120,51,-37,69,50,-19,40
31,136,105,-83,-37,121,52,-34,73,53,-17,42
31,137,106,-84,-37,122,52,-32,76,56,-16,42
31,138,107,-84,-38,123,53,-29,79,59,-14,43
32,139,107,-85,-37,123,53,-27,82,61,-13,43
32,141,109,-86,-38,125,55,-24,86,65,-10,45
33,143,110,-88,-38,127,55,-23,89,68,-8,46
33,144,111,-88,-39,128,55,-22,92,70,-7,47
33,146,113,-89,-40,130,56,-20,95,74,-4,48
34,148,114,-91,-40,131,57,-18,99,77,-2,50
34,150,116,-92,-41,133,57,-16,102,80,0,51
35,151,116,-93,-40,134,57,-14,104,82,2,53
36,153,117,-94,-40,135,58,-12,108,85,3,54
37,155,118,-96,-40,137,59,-10,112,89,5,55
38,157,119,-97,-40,138,59,-9,116,93,7,57
39,159,120,-99,-40,140,59,-7,120,96,10,59
40,162,122,-101,-41,142,60,-6,124,100,12,60
40,164,124,-102,-42,144,60,-4,128,104,14,61
41,166,125,-103,-42,146,60,-2,131,108,17,63
42,168,126,-105,-42,147,60,0,135,112,19,66
42,171,129,-106,-43,150,61,2,137,115,22,68
43,174,131,-108,-44,153,62,4,139,119,24,69
44,176,132,-110,-44,154,62,6,142,123,27,71
44,178,134,-111,-45,156,62,7,145,127,29,72
45,181,136,-113,-45,159,63,8,148,130,32,73
45,183,138,-114,-46,161,63,9,152,134,34,75
46,186,140,-116,-47,163,63,11,157,138,37,77
47,188,141,-117,-47,165,63,12,161,142,41,79
47,191,144,-119,-48,168,64,13,165,146,43,81
48,194,146,-121,-49,170,64,15,169,150,46,83
49,197,148,-123,-49,173,63,16,171,152,48,84
50,200,150,-125,-50,175,64,17,174,155,50,85
50,201,151,-125,-50,176,65,19,177,158,52,87
51,204,153,-127,-51,179,63,19,178,159,52,87
51,205,154,-128,-51,180,64,21,182,162,55,89
52,207,155,-129,-51,181,63,20,183,164,57,90
52,209,157,-130,-52,183,62,19,184,165,58,91
52,210,158,-131,-53,184,62,19,185,167,60,93
52,212,160,-132,-54,186,61,18,185,169,62,94
53,213,160,-133,-53,187,62,18,185,171,65,96
53,215,162,-134,-54,189,61,17,184,170,65,97
53,217,164,-135,-55,191,60,15,182,170,64,97
53,217,164,-135,-55,191,59,14,182,170,65,98
53,218,165,-135,-56,192,59,13,181,169,65,98
53,218,165,-135,-56,192,57,11,180,167,64,97
52,217,165,-134,-56,191,57,8,178,166,63,96
52,216,164,-134,-56,190,55,4,174,163,61,95
52,215,163,-133,-55,189,53,1,170,160,60,94
51,213,162,-132,-55,188,52,-2,166,157,59,94
51,212,161,-131,-55,187,51,-5,161,153,57,93
50,211,161,-130,-55,186,49,-10,154,147,52,91
49,209,160,-129,-55,185,48,-13,149,141,49,89
48,207,159,-127,-55,183,47,-16,143,136,45,86
47,204,157,-125,-55,181,46,-18,137,129,41,84
46,201,155,-123,-54,178,44,-23,130,122,35,81
45,196,151,-120,-53,174,43,-26,124,115,30,78
44,192,148,-118,-52,170,42,-30,117,108,25,75
42,188,146,-115,-52,167,41,-34,108,101,20,72
41,183,142,-112,-50,163,40,-38,100,92,14,69
39,178,139,-108,-50,159,39,-42,91,85,9,66
37,174,137,-105,-50,156,38,-46,82,77,4,62
36,170,134,-103,-49,152,37,-49,74,69,-2,59
35,165,130,-100,-47,148,36,-52,66,62,-7,56
34,161,127,-97,-46,144,35,-56,58,54,-13,52
33,156,123,-94,-45,140,34,-60,51,47,-17,49
31,152,121,-91,-45,137,34,-63,45,41,-22,46
31,148,117,-89,-43,133,33,-66,39,36,-25,44
30,145,115,-87,-42,130,32,-70,32,30,-30,40
29,141,112,-85,-41,127,31,-73,26,25,-32,38
28,137,109,-82,-40,123,30,-76,19,19,-37,35
27,133,106,-80,-39,120,29,-78,14,15,-39,33
26,130,104,-78,-39,117,28,-81,9,10,-43,31
26,126,100,-76,-37,113,28,-82,5,6,-45,29
25,123,98,-74,-36,111,27,-85,0,2,-49,27
25,120,95,-72,-35,108,27,-87,-4,-2,-52,24
25,117,92,-71,-33,105,26,-89,-8,-5,-55,23
24,114,90,-69,-33,102,26,-90,-12,-8,-57,22
24,112,88,-68,-32,100,25,-91,-15,-10,-60,20
23,110,87,-66,-32,99,25,-92,-18,-13,-61,19
23,108,85,-65,-31,97,25,-93,-20,-15,-62,19
23,107,84,-65,-30,96,25,-95,-23,-18,-64,18
22,105,83,-63,-30,94,25,-95,-25,-19,-65,17
22,104,82,-63,-30,93,24,-96,-27,-21,-66,16
22,102,80,-62,-29,91,24,-96,-29,-22,-66,16
22,101,79,-61,-28,90,24,-97,-31,-24,-68,14
21,100,79,-60,-29,90,24,-98,-31,-25,-69,14
21,99,78,-60,-28,89,23,-98,-31,-27,-70,13
21,98,77,-59,-28,88,23,-98,-31,-27,-70,14
21,97,76,-59,-27,87,23,-100,-32,-28,-71,13
20,97,77,-58,-28,87,22,-101,-34,-30,-72,12
20,96,76,-58,-28,86,23,-101,-36,-31,-73,12
21,96,75,-58,-27,86,22,-102,-38,-33,-74,11
21,95,74,-58,-26,85,22,-102,-38,-32,-73,12
20,94,74,-57,-27,84,22,-102,-39,-33,-74,11
20,94,74,-57,-27,84,22,-102,-40,-34,-74,10
21,94,73,-57,-26,84,22,-102,-39,-34,-74,11
22,94,72,-58,-25,83,21,-102,-38,-33,-73,11
21,94,73,-57,-26,84,22,-103,-38,-33,-74,11
20,94,74,-57,-27,84,22,-103,-38,-33,-74,11
20,94,74,-57,-27,84,23,-103,-39,-34,-75,11
20,93,73,-56,-26,83,24,-102,-37,-33,-74,11
20,93,73,-56,-26,83,24,-101,-38,-33,-74,10
20,93,73,-56,-26,83,24,-101,-38,-34,-75,10
20,93,73,-56,-26,83,24,-101,-38,-34,-74,10
21,93,72,-57,-25,83,22,-102,-39,-35,-75,9
21,92,71,-56,-25,82,23,-101,-39,-35,-75,10
21,93,72,-57,-25,83,22,-103,-40,-36,-76,10
21,93,72,-57,-25,83,22,-103,-40,-36,-76,10
21,94,73,-57,-26,84,22,-103,-40,-35,-75,10
21,94,73,-57,-26,84,23,-103,-40,-35,-75,10
21,94,73,-57,-26,84,24,-102,-40,-35,-75,10
21,95,74,-58,-26,85,24,-102,-39,-35,-75,10
21,94,73,-57,-26,84,24,-102,-39,-35,-75,10
20,94,74,-57,-27,84,24,-102,-39,-35,-75,9
20,94,74,-57,-27,84,24,-102,-40,-36,-76,9
20,93,73,-56,-26,83,24,-101,-39,-35,-75,10
20,94,74,-57,-27,84,23,-102,-40,-35,-75,10
20,94,74,-57,-27,84,23,-102,-40,-35,-74,10
21,95,74,-58,-26,85,23,-102,-40,-35,-73,11
22,96,74,-59,-26,85,23,-102,-41,-35,-74,11
22,97,75,-59,-26,86,24,-101,-40,-35,-74,11
23,97,74,-60,-25,86,23,-101,-41,-36,-75,10
23,96,73,-59,-25,85,25,-100,-39,-35,-75,11
23,96,73,-59,-25,85,25,-99,-39,-35,-75,10
23,96,73,-59,-25,85,25,-99,-39,-34,-75,10
23,96,73,-59,-25,85,25,-99,-39,-34,-76,9
23,96,73,-59,-25,85,25,-100,-39,-34,-75,9
23,96,73,-59,-25,85,25,-100,-39,-34,-75,9
23,97,74,-60,-25,86,23,-101,-40,-34,-76,9
22,96,74,-59,-26,85,24,-101,-40,-34,-75,9
22,96,74,-59,-26,85,24,-101,-41,-35,-75,9
22,97,75,-59,-26,86,24,-100,-41,-34,-74,10
23,97,74,-60,-25,86,23,-101,-41,-35,-74,10
23,97,74,-60,-25,86,23,-101,-41,-35,-74,10
23,97,74,-60,-25,86,23,-101,-42,-36,-75,9
23,97,74,-60,-25,86,23,-101,-41,-36,-75,9
23,98,75,-60,-26,87,23,-101,-40,-35,-75,10
23,99,76,-61,-26,88,23,-102,-41,-36,-75,10
23,99,76,-61,-26,88,23,-102,-42,-36,-75,9
22,99,77,-60,-27,88,23,-102,-42,-36,-75,9
22,100,78,-61,-28,89,23,-102,-42,-36,-75,10
22,100,78,-61,-28,89,22,-102,-43,-36,-75,10
22,100,78,-61,-28,89,22,-102,-43,-37,-75,10
22,99,77,-60,-27,88,22,-102,-43,-36,-76,10
22,99,77,-60,-27,88,22,-102,-43,-37,-76,10
22,99,77,-60,-27,88,21,-102,-43,-37,-76,10
23,99,76,-61,-26,88,21,-102,-42,-37,-75,11
23,99,76,-61,-26,88,22,-102,-42,-37,-75,11
23,98,75,-60,-26,87,22,-102,-42,-37,-75,11
23,98,75,-60,-26,87,22,-102,-42,-37,-74,11
22,98,76,-60,-27,87,22,-102,-43,-37,-74,11
22,99,77,-60,-27,88,22,-102,-43,-37,-74,11
22,99,77,-60,-27,88,23,-103,-44,-37,-74,11
22,99,77,-60,-27,88,23,-103,-45,-37,-74,11
22,99,77,-60,-27,88,23,-103,-45,-37,-74,11
22,99,77,-60,-27,88,23,-104,-44,-37,-74,11
23,99,76,-61,-26,88,23,-104,-45,-38,-75,11
23,99,76,-61,-26,88,22,-104,-46,-39,-75,10
22,99,77,-60,-27,88,22,-104,-46,-39,-75,10
23,99,76,-61,-26,88,22,-104,-46,-39,-75,10
22,99,77,-60,-27,88,22,-104,-47,-40,-76,11
22,99,77,-60,-27,88,22,-104,-49,-41,-76,11
22,99,77,-60,-27,88,22,-104,-48,-40,-76,11
22,99,77,-60,-27,88,22,-103,-48,-39,-76,11
23,99,76,-61,-26,88,22,-103,-48,-39,-76,11
22,99,77,-60,-27,88,21,-104,-48,-39,-76,11
23,100,77,-61,-27,89,20,-105,-48,-39,-76,10
23,99,76,-61,-26,88,21,-104,-45,-37,-74,11
23,99,76,-61,-26,88,21,-104,-45,-38,-74,11
23,100,77,-61,-27,89,20,-106,-47,-39,-76,10
23,100,77,-61,-27,89,20,-106,-46,-40,-77,9
23,99,76,-61,-26,88,21,-104,-46,-39,-76,10
23,99,76,-61,-26,88,22,-104,-47,-40,-77,10
23,100,77,-61,-27,89,21,-105,-48,-41,-79,8
23,100,77,-61,-27,89,20,-106,-49,-42,-80,7
23,99,76,-61,-26,88,21,-105,-48,-41,-79,9
23,99,76,-61,-26,88,20,-106,-49,-41,-78,9
23,99,76,-61,-26,88,20,-107,-50,-41,-78,9
23,99,76,-61,-26,88,19,-108,-51,-42,-77,9
23,99,76,-61,-26,88,19,-108,-51,-42,-77,9
23,98,75,-60,-26,87,19,-107,-51,-42,-78,9
23,98,75,-60,-26,87,20,-107,-51,-43,-78,9
22,98,76,-60,-27,87,20,-107,-51,-43,-78,8
22,97,75,-59,-26,86,21,-106,-51,-43,-77,9
"
		21","
		97","
		76","
		-59","
		-27","
		87","
		21","
		-106","
		-51","
		-43","
		-78","
		9"
21,98,77,-59,-28,88,21,-106,-51,-43,-78,8
21,98,77,-59,-28,88,22,-107,-51,-43,-78,8
22,98,76,-60,-27,87,21,-108,-52,-44,-79,8
22,99,77,-60,-27,88,21,-108,-53,-44,-79,8
22,100,78,-61,-28,89,21,-108,-53,-44,-79,9
22,101,79,-61,-28,90,20,-109,-54,-45,-79,8
22,100,78,-61,-28,89,21,-108,-53,-45,-78,9
23,100,77,-61,-27,89,20,-110,-55,-46,-80,8
23,100,77,-61,-27,89,20,-110,-55,-47,-80,8
22,100,78,-61,-28,89,21,-109,-55,-46,-79,9
22,99,77,-60,-27,88,20,-109,-55,-46,-79,8
22,99,77,-60,-27,88,20,-109,-55,-46,-80,8
22,99,77,-60,-27,88,20,-109,-55,-46,-80,8
22,99,77,-60,-27,88,20,-109,-55,-47,-80,8
22,99,77,-60,-27,88,20,-109,-55,-47,-81,7
22,99,77,-60,-27,88,20,-109,-56,-47,-81,7
22,98,76,-60,-27,87,20,-109,-57,-48,-81,7
22,99,77,-60,-27,88,20,-109,-57,-48,-81,7
22,99,77,-60,-27,88,20,-110,-58,-49,-81,7
22,99,77,-60,-27,88,20,-110,-58,-49,-82,7
22,99,77,-60,-27,88,20,-110,-58,-49,-82,7
22,99,77,-60,-27,88,20,-110,-57,-48,-81,8
22,99,77,-60,-27,88,20,-110,-57,-48,-80,8
22,100,78,-61,-28,89,20,-111,-57,-48,-81,8
22,100,78,-61,-28,89,20,-111,-58,-48,-81,8
23,99,76,-61,-26,88,20,-110,-58,-48,-80,8
23,99,76,-61,-26,88,21,-110,-58,-48,-81,7
23,99,76,-61,-26,88,21,-110,-59,-49,-82,6
23,99,76,-61,-26,88,20,-109,-59,-50,-82,6
23,98,75,-60,-26,87,20,-109,-59,-50,-82,6
23,98,75,-60,-26,87,20,-109,-59,-49,-82,5
23,98,75,-60,-26,87,20,-110,-59,-49,-82,6
23,99,76,-61,-26,88,20,-110,-59,-49,-81,6
23,100,77,-61,-27,89,19,-111,-60,-49,-81,6
23,100,77,-61,-27,89,19,-112,-60,-49,-81,7
23,100,77,-61,-27,89,19,-111,-60,-49,-81,7
23,100,77,-61,-27,89,19,-111,-60,-50,-81,7
24,101,77,-62,-26,89,19,-111,-59,-50,-81,7
24,101,77,-62,-26,89,20,-111,-59,-50,-81,7
24,100,76,-62,-26,88,20,-110,-59,-50,-81,6
24,100,76,-62,-26,88,20,-110,-59,-50,-82,6
24,100,76,-62,-26,88,19,-110,-58,-50,-82,6
24,100,76,-62,-26,88,19,-110,-58,-50,-82,6
24,100,76,-62,-26,88,19,-111,-59,-49,-82,6
24,99,75,-61,-25,87,18,-111,-59,-50,-82,6
23,100,77,-61,-27,89,18,-111,-60,-50,-82,6
24,99,75,-61,-25,87,18,-111,-60,-50,-82,6
24,99,75,-61,-25,87,18,-111,-61,-51,-82,6
24,99,75,-61,-25,87,18,-111,-61,-51,-82,6
24,100,76,-62,-26,88,18,-111,-61,-52,-83,6
24,100,76,-62,-26,88,18,-111,-60,-52,-84,6
24,100,76,-62,-26,88,18,-112,-60,-52,-84,5
23,100,77,-61,-27,89,18,-112,-59,-51,-84,5
23,100,77,-61,-27,89,18,-112,-60,-52,-85,5
23,100,77,-61,-27,89,18,-112,-60,-51,-84,6
23,100,77,-61,-27,89,18,-111,-60,-50,-83,6
22,100,78,-61,-28,89,19,-110,-59,-49,-82,7
22,100,78,-61,-28,89,19,-110,-60,-50,-83,7
22,99,77,-60,-27,88,19,-110,-60,-50,-83,7
22,99,77,-60,-27,88,19,-111,-60,-50,-83,7
22,99,77,-60,-27,88,18,-111,-60,-50,-84,6
22,99,77,-60,-27,88,18,-112,-61,-51,-84,7
22,99,77,-60,-27,88,19,-112,-61,-51,-84,7
21,99,78,-60,-28,89,19,-111,-61,-50,-84,7
21,99,78,-60,-28,89,18,-111,-61,-50,-84,7
21,100,79,-60,-29,90,18,-111,-61,-50,-84,7
21,99,78,-60,-28,89,18,-111,-61,-51,-84,6
21,99,78,-60,-28,89,18,-111,-61,-51,-85,5
21,100,79,-60,-29,90,18,-112,-62,-52,-86,5
22,100,78,-61,-28,89,18,-112,-61,-52,-85,6
23,100,77,-61,-27,89,17,-112,-62,-52,-86,5
23,100,77,-61,-27,89,17,-112,-62,-52,-86,5
23,100,77,-61,-27,89,17,-113,-62,-53,-86,5
24,100,76,-62,-26,88,18,-112,-62,-53,-85,6
24,100,76,-62,-26,88,18,-112,-62,-52,-85,6
24,100,76,-62,-26,88,18,-111,-62,-52,-85,6
24,101,77,-62,-26,89,19,-111,-62,-53,-85,6
24,101,77,-62,-26,89,19,-111,-62,-52,-85,7
24,101,77,-62,-26,89,19,-110,-61,-52,-85,7
24,101,77,-62,-26,89,19,-110,-61,-51,-85,7
24,101,77,-62,-26,89,19,-111,-61,-51,-85,6
24,101,77,-62,-26,89,18,-111,-61,-51,-86,7
24,100,76,-62,-26,88,18,-112,-61,-52,-86,7
24,100,76,-62,-26,88,17,-112,-61,-52,-85,6
24,101,77,-62,-26,89,17,-112,-62,-52,-85,7
23,101,78,-62,-27,90,17,-113,-63,-53,-85,6
23,101,78,-62,-27,90,17,-112,-63,-53,-85,6
23,101,78,-62,-27,90,17,-112,-63,-52,-85,6
23,101,78,-62,-27,90,18,-112,-63,-52,-85,5
23,100,77,-61,-27,89,18,-112,-63,-52,-86,5
24,100,76,-62,-26,88,17,-112,-63,-52,-87,5
24,100,76,-62,-26,88,18,-112,-63,-52,-86,6
24,100,76,-62,-26,88,18,-112,-62,-51,-86,6
24,100,76,-62,-26,88,17,-112,-63,-52,-87,6
24,100,76,-62,-26,88,17,-113,-64,-53,-88,6
24,101,77,-62,-26,89,17,-112,-64,-54,-89,6
24,101,77,-62,-26,89,17,-112,-63,-53,-88,6
24,101,77,-62,-26,89,16,-112,-63,-53,-88,5
23,101,78,-62,-27,90,16,-112,-64,-54,-89,5
24,101,77,-62,-26,89,16,-112,-64,-54,-88,6
24,102,78,-63,-27,90,15,-113,-64,-55,-87,5
24,102,78,-63,-27,90,15,-113,-63,-53,-86,5
24,102,78,-63,-27,90,15,-114,-63,-53,-87,5
24,102,78,-63,-27,90,16,-114,-64,-53,-87,5
24,102,78,-63,-27,90,16,-113,-64,-54,-87,5
24,102,78,-63,-27,90,16,-113,-64,-53,-87,5
24,102,78,-63,-27,90,16,-113,-65,-53,-88,5
24,103,79,-63,-27,91,16,-113,-65,-54,-88,5
24,103,79,-63,-27,91,16,-113,-65,-55,-88,5
24,102,78,-63,-27,90,16,-113,-64,-54,-87,5
24,102,78,-63,-27,90,16,-113,-63,-53,-87,5
24,103,79,-63,-27,91,15,-113,-63,-53,-87,4
25,103,78,-64,-26,91,16,-112,-62,-53,-86,5
25,103,78,-64,-26,91,16,-112,-62,-53,-85,6
25,102,77,-63,-26,90,16,-112,-62,-53,-86,6
25,102,77,-63,-26,90,17,-112,-63,-53,-86,5
25,102,77,-63,-26,90,17,-112,-63,-53,-86,6
24,102,78,-63,-27,90,17,-112,-63,-54,-86,6
24,103,79,-63,-27,91,17,-113,-63,-54,-87,6
24,103,79,-63,-27,91,16,-113,-63,-54,-87,6
23,102,79,-62,-28,91,17,-113,-62,-53,-86,7
24,102,78,-63,-27,90,16,-114,-64,-54,-87,6
24,103,79,-63,-27,91,16,-113,-64,-54,-87,6
24,103,79,-63,-27,91,15,-113,-64,-54,-87,6
24,102,78,-63,-27,90,15,-113,-65,-54,-87,7
25,102,77,-63,-26,90,16,-112,-65,-55,-88,6
25,103,78,-64,-26,91,16,-111,-63,-54,-88,6
25,103,78,-64,-26,91,15,-111,-63,-54,-88,6
25,102,77,-63,-26,90,15,-111,-63,-55,-89,5
24,103,79,-63,-27,91,16,-112,-62,-55,-90,5
24,103,79,-63,-27,91,16,-112,-62,-54,-89,4
24,103,79,-63,-27,91,16,-113,-62,-54,-88,4
23,104,81,-63,-29,93,15,-114,-63,-54,-88,4
23,105,82,-64,-29,94,16,-114,-63,-53,-88,4
23,105,82,-64,-29,94,16,-113,-63,-52,-87,5
24,106,82,-65,-29,94,15,-113,-64,-53,-88,4
23,106,83,-64,-30,95,15,-113,-65,-54,-88,4
23,106,83,-64,-30,95,15,-113,-64,-54,-88,4
24,107,83,-65,-29,95,15,-113,-64,-54,-87,5
25,107,82,-66,-28,95,13,-114,-65,-55,-88,4
25,107,82,-66,-28,95,13,-115,-65,-55,-89,3
25,107,82,-66,-28,95,12,-115,-64,-55,-89,3
25,107,82,-66,-28,95,12,-115,-64,-54,-89,3
25,108,83,-66,-29,96,12,-115,-65,-55,-89,3
24,108,84,-66,-30,96,11,-115,-66,-55,-90,2
24,108,84,-66,-30,96,11,-114,-66,-55,-90,1
25,108,83,-66,-29,96,11,-113,-66,-55,-90,1
24,109,85,-66,-30,97,11,-113,-66,-55,-90,2
24,110,86,-67,-31,98,11,-113,-66,-55,-90,2
24,110,86,-67,-31,98,11,-113,-65,-55,-90,2
24,110,86,-67,-31,98,11,-113,-65,-55,-90,2
24,111,87,-67,-31,99,11,-114,-66,-56,-91,2
24,112,88,-68,-32,100,11,-114,-66,-56,-90,2
24,112,88,-68,-32,100,11,-114,-66,-56,-90,2
24,113,89,-68,-32,101,11,-114,-66,-56,-90,2
24,113,89,-68,-32,101,11,-114,-66,-57,-90,2
24,114,90,-69,-33,102,10,-114,-67,-58,-91,1
24,114,90,-69,-33,102,10,-114,-67,-57,-92,1
23,114,91,-68,-34,103,11,-113,-66,-57,-91,2
23,114,91,-68,-34,103,12,-113,-66,-57,-91,2
23,115,92,-69,-34,104,11,-114,-67,-58,-93,0
23,114,91,-68,-34,103,12,-113,-66,-56,-91,1
23,114,91,-68,-34,103,12,-114,-66,-56,-90,1
23,114,91,-68,-34,103,12,-114,-66,-56,-89,2
24,114,90,-69,-33,102,11,-115,-67,-57,-90,1
24,113,89,-68,-32,101,12,-113,-66,-56,-88,3
24,113,89,-68,-32,101,12,-113,-67,-57,-88,2
24,113,89,-68,-32,101,12,-113,-67,-57,-88,2
24,114,90,-69,-33,102,11,-113,-67,-57,-89,2
24,114,90,-69,-33,102,11,-113,-67,-57,-89,1
25,115,90,-70,-32,103,12,-114,-67,-57,-90,1
25,115,90,-70,-32,103,12,-114,-67,-57,-89,1
25,115,90,-70,-32,103,11,-114,-66,-56,-89,1
25,115,90,-70,-32,103,11,-114,-66,-57,-89,1
25,115,90,-70,-32,103,11,-114,-66,-57,-89,0
25,115,90,-70,-32,103,11,-114,-67,-58,-88,0
24,115,91,-69,-33,103,12,-114,-68,-58,-88,0
24,116,92,-70,-34,104,12,-114,-68,-58,-88,1
24,116,92,-70,-34,104,12,-113,-68,-58,-89,2
24,116,92,-70,-34,104,12,-113,-69,-58,-90,2
24,116,92,-70,-34,104,12,-114,-69,-57,-90,2
24,116,92,-70,-34,104,12,-114,-68,-56,-89,3
25,116,91,-70,-33,104,11,-115,-68,-57,-89,2
25,116,91,-70,-33,104,11,-116,-67,-57,-88,3
25,116,91,-70,-33,104,11,-115,-66,-57,-87,2
26,117,91,-71,-32,104,11,-115,-65,-56,-87,3
26,117,91,-71,-32,104,11,-115,-65,-56,-86,3
26,117,91,-71,-32,104,10,-115,-66,-57,-87,3
25,117,92,-71,-33,105,10,-114,-66,-58,-88,3
24,117,93,-70,-34,105,10,-114,-66,-58,-88,2
24,116,92,-70,-34,104,10,-113,-65,-57,-88,3
24,116,92,-70,-34,104,10,-113,-66,-57,-88,3
23,115,92,-69,-34,104,11,-113,-67,-57,-88,3
23,115,92,-69,-34,104,11,-113,-66,-57,-88,3
23,116,93,-69,-35,105,11,-113,-66,-57,-88,3
23,115,92,-69,-34,104,11,-114,-67,-57,-88,3
23,115,92,-69,-34,104,11,-114,-67,-57,-88,2
23,115,92,-69,-34,104,11,-114,-67,-58,-88,2
23,114,91,-68,-34,103,13,-113,-66,-57,-87,3
23,114,91,-68,-34,103,13,-113,-66,-57,-86,3
23,114,91,-68,-34,103,12,-113,-65,-56,-86,2
23,114,91,-68,-34,103,12,-113,-65,-56,-86,3
22,115,93,-68,-35,104,13,-113,-64,-56,-86,4
22,116,94,-69,-36,105,12,-114,-65,-56,-86,3
22,116,94,-69,-36,105,12,-113,-65,-56,-86,3
22,116,94,-69,-36,105,12,-113,-65,-56,-86,4
22,116,94,-69,-36,105,12,-114,-65,-56,-85,4
23,117,94,-70,-35,106,12,-114,-65,-56,-86,4
23,116,93,-69,-35,105,11,-114,-66,-56,-86,4
23,116,93,-69,-35,105,11,-114,-66,-57,-86,3
23,116,93,-69,-35,105,11,-114,-66,-58,-86,3
23,116,93,-69,-35,105,11,-115,-66,-57,-87,3
23,116,93,-69,-35,105,11,-115,-67,-58,-88,2
22,115,93,-68,-35,104,12,-114,-66,-58,-87,3
22,114,92,-68,-35,103,12,-114,-66,-57,-87,4
22,113,91,-67,-34,102,11,-114,-67,-56,-86,4
21,113,92,-67,-35,103,12,-113,-66,-56,-86,4
21,112,91,-66,-35,102,12,-113,-66,-56,-86,4
21,112,91,-66,-35,102,12,-113,-66,-56,-85,4
21,112,91,-66,-35,102,13,-113,-65,-56,-86,4
21,112,91,-66,-35,102,13,-113,-65,-56,-86,3
22,112,90,-67,-34,101,13,-113,-65,-56,-86,3
22,113,91,-67,-34,102,12,-114,-66,-57,-87,3
22,113,91,-67,-34,102,12,-114,-66,-57,-87,3
23,113,90,-68,-33,102,13,-113,-65,-57,-86,4
23,113,90,-68,-33,102,13,-113,-66,-57,-86,4
23,112,89,-67,-33,101,12,-114,-66,-58,-86,3
22,112,90,-67,-34,101,14,-112,-65,-57,-86,4
22,112,90,-67,-34,101,14,-112,-65,-58,-86,4
22,112,90,-67,-34,101,14,-112,-65,-58,-87,5
22,112,90,-67,-34,101,13,-112,-65,-58,-87,4
22,112,90,-67,-34,101,13,-113,-64,-57,-86,5
22,113,91,-67,-34,102,12,-114,-65,-58,-86,4
22,113,91,-67,-34,102,12,-114,-65,-58,-86,5
22,113,91,-67,-34,102,12,-114,-66,-59,-86,5
22,113,91,-67,-34,102,12,-114,-66,-59,-86,4
22,112,90,-67,-34,101,13,-114,-65,-58,-85,5
22,112,90,-67,-34,101,12,-114,-65,-59,-86,5
22,112,90,-67,-34,101,12,-114,-65,-60,-85,5
23,112,89,-67,-33,101,11,-115,-66,-61,-86,4
23,112,89,-67,-33,101,11,-115,-65,-60,-86,4
23,112,89,-67,-33,101,11,-115,-65,-60,-86,4
23,113,90,-68,-33,102,12,-115,-66,-60,-85,5
23,113,90,-68,-33,102,12,-115,-66,-60,-86,5
23,113,90,-68,-33,102,12,-115,-66,-60,-86,4
23,113,90,-68,-33,102,13,-115,-66,-59,-86,4
23,113,90,-68,-33,102,13,-115,-66,-59,-86,4
23,114,91,-68,-34,103,13,-115,-67,-59,-86,4
22,114,92,-68,-35,103,13,-115,-67,-59,-86,4
22,114,92,-68,-35,103,12,-115,-66,-59,-86,3
22,113,91,-67,-34,102,12,-115,-66,-59,-86,3
22,113,91,-67,-34,102,12,-115,-67,-59,-86,3
21,113,92,-67,-35,103,12,-114,-66,-58,-85,4
21,113,92,-67,-35,103,12,-114,-65,-58,-85,4
21,112,91,-66,-35,102,12,-114,-66,-58,-85,4
21,111,90,-66,-34,101,12,-114,-66,-58,-85,4
21,110,89,-65,-34,100,13,-113,-64,-57,-84,6
21,109,88,-65,-33,99,13,-112,-64,-57,-84,6
21,111,90,-66,-34,101,12,-113,-65,-59,-85,5
21,112,91,-66,-35,102,12,-113,-64,-59,-85,5
21,113,92,-67,-35,103,13,-113,-64,-59,-85,6
21,115,94,-68,-36,105,12,-114,-64,-59,-85,5
22,118,96,-70,-37,107,11,-114,-65,-60,-86,4
22,120,98,-71,-38,109,11,-115,-65,-60,-87,3
23,120,97,-71,-37,109,12,-114,-65,-58,-86,4
24,121,97,-72,-36,109,12,-114,-65,-58,-85,4
25,122,97,-73,-36,110,12,-114,-65,-58,-85,4
26,123,97,-74,-35,110,13,-113,-63,-57,-84,5
27,124,97,-75,-35,111,13,-112,-63,-57,-84,5
27,124,97,-75,-35,111,13,-111,-62,-57,-83,5
27,125,98,-76,-35,112,14,-110,-61,-56,-82,6
27,125,98,-76,-35,112,15,-109,-60,-55,-82,7
26,126,100,-76,-37,113,16,-109,-60,-54,-81,7
26,127,101,-76,-37,114,15,-110,-61,-54,-81,6
26,128,102,-77,-38,115,15,-111,-60,-54,-81,6
25,128,103,-76,-39,116,16,-111,-60,-54,-82,7
25,128,103,-76,-39,116,16,-111,-60,-54,-82,6
26,128,102,-77,-38,115,16,-111,-60,-54,-83,6
26,126,100,-76,-37,113,17,-109,-59,-54,-83,7
27,125,98,-76,-35,112,17,-108,-58,-54,-83,7
28,124,96,-76,-34,110,18,-107,-57,-53,-82,6
29,124,95,-76,-33,110,18,-106,-56,-53,-82,5
30,124,94,-77,-32,109,18,-105,-55,-51,-81,6
30,125,95,-77,-32,110,19,-104,-54,-50,-80,7
31,126,95,-78,-32,111,18,-103,-54,-50,-79,7
32,128,96,-80,-32,112,17,-104,-54,-49,-78,7
32,128,96,-80,-32,112,15,-105,-56,-50,-78,8
32,128,96,-80,-32,112,13,-107,-58,-51,-79,8
31,127,96,-79,-32,112,12,-108,-59,-52,-79,9
30,127,97,-78,-33,112,10,-111,-60,-54,-79,8
29,125,96,-77,-33,111,9,-112,-61,-54,-80,8
29,124,95,-76,-33,110,8,-114,-63,-56,-82,7
29,124,95,-76,-33,110,8,-114,-63,-57,-82,7
29,123,94,-76,-32,109,10,-113,-61,-55,-81,8
29,123,94,-76,-32,109,11,-112,-61,-55,-81,7
29,123,94,-76,-32,109,11,-112,-61,-55,-82,7
30,123,93,-76,-31,108,10,-113,-61,-56,-83,6
30,122,92,-76,-31,107,11,-111,-60,-54,-81,7
31,122,91,-76,-30,107,10,-112,-60,-54,-81,7
"
		32","
		123","
		91","
		-77","
		-29","
		107","
		10","
		-111","
		-60","
		-53","
		-80","
		7"
33,123,90,-78,-28,107,9,-112,-61,-53,-81,7
33,123,90,-78,-28,107,9,-112,-61,-53,-81,7
33,123,90,-78,-28,107,9,-113,-61,-52,-80,8
33,123,90,-78,-28,107,8,-113,-62,-53,-80,8
32,122,90,-77,-29,106,8,-114,-64,-54,-81,7
30,121,91,-75,-30,106,8,-114,-65,-55,-82,6
28,119,91,-73,-31,105,9,-114,-66,-57,-83,5
27,118,91,-72,-32,105,10,-114,-66,-57,-84,4
25,117,92,-71,-33,105,11,-114,-67,-59,-85,3
23,117,94,-70,-35,106,11,-114,-68,-60,-87,2
22,116,94,-69,-36,105,11,-115,-69,-61,-88,2
22,115,93,-68,-35,104,12,-114,-68,-61,-87,2
22,115,93,-68,-35,104,12,-115,-69,-61,-88,1
22,115,93,-68,-35,104,11,-116,-69,-62,-88,1
22,115,93,-68,-35,104,11,-116,-69,-63,-89,1
21,115,94,-68,-36,105,11,-116,-69,-62,-89,0
22,115,93,-68,-35,104,11,-116,-68,-62,-88,0
22,115,93,-68,-35,104,12,-116,-68,-62,-89,0
22,115,93,-68,-35,104,12,-116,-68,-62,-91,0
22,116,94,-69,-36,105,11,-116,-69,-62,-91,-1
23,116,93,-69,-35,105,11,-116,-69,-62,-91,0
23,115,92,-69,-34,104,12,-117,-69,-62,-91,1
24,115,91,-69,-33,103,11,-117,-70,-62,-91,1
24,116,92,-70,-34,104,11,-118,-70,-63,-91,0
23,116,93,-69,-35,105,11,-118,-69,-63,-90,0
23,116,93,-69,-35,105,11,-118,-69,-63,-90,0
22,116,94,-69,-36,105,11,-118,-69,-64,-91,0
22,116,94,-69,-36,105,11,-118,-69,-65,-91,0
22,117,95,-69,-36,106,11,-117,-69,-65,-91,0
21,118,97,-69,-38,108,12,-117,-70,-65,-90,0
21,118,97,-69,-38,108,12,-117,-70,-65,-90,0
21,118,97,-69,-38,108,12,-116,-70,-65,-91,0
21,118,97,-69,-38,108,12,-116,-70,-64,-90,0
21,118,97,-69,-38,108,12,-116,-70,-63,-90,0
20,118,98,-69,-39,108,11,-117,-70,-64,-90,1
21,118,97,-69,-38,108,11,-117,-69,-64,-90,0
21,118,97,-69,-38,108,11,-117,-69,-64,-90,1
22,118,96,-70,-37,107,12,-117,-69,-63,-90,1
22,119,97,-70,-37,108,11,-118,-70,-64,-91,1
22,119,97,-70,-37,108,11,-118,-69,-64,-91,1
22,119,97,-70,-37,108,11,-118,-69,-63,-91,0
22,118,96,-70,-37,107,12,-117,-68,-62,-89,1
22,118,96,-70,-37,107,12,-116,-67,-62,-90,1
21,117,96,-69,-37,107,12,-115,-67,-62,-91,0
21,116,95,-68,-37,106,14,-112,-65,-61,-90,0
21,116,95,-68,-37,106,16,-109,-63,-61,-91,-1
21,115,94,-68,-36,105,18,-107,-61,-61,-93,-3
21,113,92,-67,-35,103,21,-102,-56,-60,-94,-4
22,112,90,-67,-34,101,24,-98,-52,-58,-94,-6
22,112,90,-67,-34,101,27,-94,-47,-55,-93,-7
22,112,90,-67,-34,101,30,-91,-42,-51,-93,-7
23,113,90,-68,-33,102,31,-88,-36,-46,-90,-6
26,116,90,-71,-32,103,32,-84,-29,-38,-85,-4
29,119,90,-74,-30,105,34,-78,-19,-28,-79,0
32,124,92,-78,-30,108,36,-71,-7,-17,-72,5
36,130,94,-83,-29,112,41,-60,11,0,-60,12
41,140,99,-90,-29,120,44,-49,31,19,-46,21
46,152,106,-99,-30,129,45,-41,53,42,-30,32
50,170,120,-110,-35,145,42,-38,73,66,-10,47
55,193,138,-124,-41,166,31,-43,90,91,14,65
60,223,163,-141,-51,193,9,-61,100,117,42,85
65,258,193,-161,-64,226,-21,-92,102,142,71,110
69,294,225,-181,-78,260,-58,-132,95,162,100,134
73,327,254,-200,-90,291,-96,-178,83,180,126,156
73,354,281,-213,-104,318,-130,-226,69,194,148,175
70,373,303,-221,-116,338,-157,-270,51,201,162,187
63,382,319,-222,-128,351,-176,-309,26,194,164,191
53,376,323,-214,-135,350,-185,-340,-6,172,153,185
41,358,317,-199,-138,338,-185,-362,-45,136,131,170
27,329,302,-178,-137,316,-176,-371,-90,87,98,150
12,296,284,-154,-136,290,-163,-373,-142,24,54,123
-2,259,261,-128,-131,260,-148,-369,-194,-43,6,91
-13,221,234,-104,-123,228,-132,-358,-238,-105,-42,59
-21,188,209,-83,-115,199,-117,-344,-268,-153,-82,32
-27,162,189,-67,-108,176,-104,-328,-285,-186,-113,10
-28,145,173,-58,-100,159,-95,-312,-288,-203,-134,-8
-26,132,158,-53,-92,145,-88,-296,-279,-205,-145,-19
-21,122,143,-50,-82,133,-82,-279,-262,-196,-146,-23
-14,116,130,-51,-72,123,-77,-263,-243,-183,-144,-24
-7,110,117,-51,-62,114,-68,-243,-220,-166,-138,-22
0,105,105,-52,-52,105,-58,-223,-199,-151,-133,-22
6,101,95,-53,-44,98,-45,-201,-176,-135,-127,-20
11,99,88,-55,-38,94,-32,-180,-154,-120,-120,-17
14,99,85,-56,-35,92,-17,-160,-133,-105,-113,-14
18,101,83,-59,-32,92,-5,-142,-113,-91,-107,-11
20,105,85,-62,-32,95,6,-127,-93,-78,-100,-8
22,111,89,-66,-33,100,13,-115,-77,-68,-94,-4
23,119,96,-71,-36,108,18,-106,-63,-58,-88,0
24,126,102,-75,-39,114,20,-101,-53,-51,-82,5
24,133,109,-78,-42,121,20,-98,-45,-44,-78,9
24,137,113,-80,-44,125,21,-95,-40,-41,-75,12
23,141,118,-82,-47,130,20,-94,-38,-39,-73,14
23,142,119,-82,-48,131,20,-93,-36,-38,-73,14
23,143,120,-83,-48,132,21,-93,-34,-37,-73,13
22,143,121,-82,-49,132,22,-92,-33,-38,-75,11
23,142,119,-82,-48,131,23,-91,-33,-38,-76,10
23,142,119,-82,-48,131,24,-90,-31,-37,-76,9
24,142,118,-83,-47,130,25,-89,-29,-36,-75,9
24,142,118,-83,-47,130,25,-89,-29,-35,-74,9
24,142,118,-83,-47,130,25,-89,-28,-35,-74,10
25,142,117,-83,-46,130,26,-87,-26,-33,-73,11
26,143,117,-84,-45,130,25,-87,-26,-33,-73,11
26,142,116,-84,-45,129,26,-85,-25,-33,-72,12
26,142,116,-84,-45,129,26,-84,-24,-32,-72,12
26,143,117,-84,-45,130,27,-83,-23,-31,-73,12
26,144,118,-85,-46,131,28,-82,-22,-31,-74,12
26,144,118,-85,-46,131,28,-82,-21,-29,-73,12
25,144,119,-84,-47,132,29,-82,-19,-28,-72,11
25,144,119,-84,-47,132,29,-81,-19,-27,-72,12
26,144,118,-85,-46,131,30,-81,-17,-27,-72,13
27,144,117,-85,-45,131,30,-80,-17,-26,-71,12
27,145,118,-86,-45,132,30,-79,-16,-24,-69,12
27,145,118,-86,-45,132,31,-78,-15,-24,-68,13
27,145,118,-86,-45,132,31,-77,-14,-24,-68,14
27,145,118,-86,-45,132,31,-77,-13,-23,-68,14
26,145,119,-85,-46,132,31,-77,-12,-23,-68,13
26,145,119,-85,-46,132,31,-77,-11,-22,-67,13
26,145,119,-85,-46,132,31,-77,-11,-22,-67,14
26,146,120,-86,-47,133,31,-77,-10,-21,-67,14
27,147,120,-87,-46,134,31,-77,-11,-21,-67,14
28,147,119,-87,-45,133,32,-76,-10,-19,-65,15
28,148,120,-88,-46,134,32,-75,-10,-19,-64,15
28,148,120,-88,-46,134,33,-75,-9,-19,-65,16
28,149,121,-88,-46,135,32,-75,-9,-19,-65,15
28,149,121,-88,-46,135,32,-75,-8,-18,-63,16
28,148,120,-88,-46,134,33,-75,-5,-16,-61,16
27,148,121,-87,-47,135,33,-75,-4,-16,-62,16
27,148,121,-87,-47,135,33,-75,-3,-14,-61,17
28,149,121,-88,-46,135,33,-75,-3,-14,-60,16
28,149,121,-88,-46,135,33,-74,-1,-12,-59,16
28,150,122,-89,-47,136,34,-73,0,-11,-59,17
28,150,122,-89,-47,136,35,-72,1,-10,-58,18
29,151,122,-90,-46,137,35,-72,2,-10,-59,17
29,152,123,-90,-47,138,36,-71,4,-8,-59,17
29,152,123,-90,-47,138,36,-71,6,-8,-59,18
28,152,124,-90,-48,138,36,-71,6,-7,-59,18
28,152,124,-90,-48,138,37,-71,7,-6,-58,18
28,152,124,-90,-48,138,37,-71,9,-4,-57,19
28,152,124,-90,-48,138,37,-71,10,-3,-56,20
28,153,125,-90,-48,139,37,-71,11,-2,-54,21
29,154,125,-91,-48,140,36,-71,11,-2,-53,21
30,154,124,-92,-47,139,37,-69,13,-1,-53,21
30,155,125,-92,-47,140,38,-67,15,0,-52,22
30,156,126,-93,-48,141,38,-66,16,0,-53,22
30,157,127,-93,-48,142,39,-65,18,1,-53,23
30,157,127,-93,-48,142,40,-63,19,3,-52,23
30,157,127,-93,-48,142,40,-62,22,5,-52,23
30,159,129,-94,-49,144,40,-62,23,5,-52,23
31,160,129,-95,-49,145,41,-60,25,8,-51,23
32,160,128,-96,-48,144,40,-60,26,9,-50,23
32,161,129,-96,-48,145,41,-58,28,10,-49,23
32,162,130,-97,-49,146,42,-56,29,12,-49,24
33,163,130,-98,-48,147,42,-54,30,12,-48,24
34,163,129,-98,-47,146,42,-52,32,14,-46,25
33,164,131,-98,-49,148,43,-50,33,15,-45,25
34,165,131,-99,-48,148,43,-49,34,16,-45,25
34,166,132,-100,-49,149,44,-47,36,18,-43,27
35,167,132,-101,-48,150,43,-46,38,20,-41,28
35,168,133,-101,-49,151,44,-43,41,22,-39,29
35,170,135,-102,-50,153,44,-42,42,23,-38,29
36,171,135,-103,-49,153,43,-40,43,24,-38,29
36,172,136,-104,-50,154,44,-38,46,26,-36,30
36,173,137,-104,-50,155,46,-35,48,29,-35,31
36,174,138,-105,-51,156,46,-34,49,29,-35,30
36,174,138,-105,-51,156,47,-32,52,31,-35,30
37,175,138,-106,-50,157,48,-29,55,35,-33,32
38,177,139,-107,-50,158,48,-27,58,36,-31,33
38,178,140,-108,-51,159,48,-25,60,38,-30,33
39,179,140,-109,-50,160,49,-23,62,40,-29,34
39,181,142,-110,-51,162,50,-21,65,42,-28,34
40,183,143,-111,-51,163,50,-18,68,44,-27,35
40,185,145,-112,-52,165,50,-16,70,45,-26,36
40,187,147,-113,-53,167,52,-13,73,48,-24,37
41,188,147,-114,-53,168,52,-11,76,50,-24,37
41,189,148,-115,-53,169,53,-8,80,53,-21,39
42,190,148,-116,-53,169,53,-6,82,56,-20,41
42,192,150,-117,-54,171,52,-5,84,58,-19,41
43,193,150,-118,-53,172,54,-2,87,62,-16,43
43,195,152,-119,-54,174,54,1,90,65,-14,44
44,196,152,-120,-54,174,55,3,93,67,-13,45
44,198,154,-121,-55,176,57,7,97,70,-10,47
44,200,156,-122,-56,178,58,10,100,73,-8,48
45,202,157,-123,-56,180,59,13,104,76,-6,49
45,204,159,-124,-57,182,60,16,108,79,-5,50
46,206,160,-126,-57,183,60,19,111,83,-3,51
47,208,161,-127,-57,185,60,22,115,87,0,53
48,211,163,-129,-57,187,61,24,119,91,2,54
48,213,165,-130,-58,189,62,26,123,94,4,56
50,216,166,-133,-58,191,62,28,126,97,7,58
50,219,169,-134,-59,194,63,31,130,101,10,59
51,222,171,-136,-60,197,62,32,132,103,11,60
51,224,173,-137,-61,199,64,36,137,108,15,64
52,227,175,-139,-61,201,64,38,140,112,17,65
54,229,175,-141,-60,202,64,41,145,116,19,66
55,232,177,-143,-61,205,65,43,149,120,22,68
56,234,178,-145,-61,206,65,45,154,125,25,70
57,236,179,-146,-61,208,65,47,157,129,27,72
57,239,182,-148,-62,211,65,48,161,133,30,73
58,241,183,-149,-62,212,66,49,165,136,33,75
58,244,186,-151,-64,215,66,51,167,139,36,77
59,246,187,-152,-64,217,66,52,170,142,38,78
59,249,190,-154,-65,220,66,54,173,145,40,80
60,252,192,-156,-66,222,65,55,175,147,41,81
60,254,194,-157,-67,224,66,57,178,150,44,83
61,256,195,-158,-67,226,66,58,181,153,46,84
62,257,195,-159,-66,226,66,59,183,156,49,85
62,259,197,-160,-67,228,65,59,185,157,50,86
62,261,199,-161,-68,230,65,60,187,160,52,88
62,263,201,-162,-69,232,64,60,188,162,53,89
63,265,202,-164,-69,234,63,60,188,163,54,90
63,267,204,-165,-70,236,62,59,187,164,55,90
63,269,206,-166,-71,238,62,59,188,165,56,92
63,270,207,-166,-72,239,61,58,187,165,56,91
63,271,208,-167,-72,240,60,57,186,165,57,92
63,271,208,-167,-72,240,59,55,184,163,56,92
62,271,209,-166,-73,240,58,52,183,162,55,92
62,270,208,-166,-73,239,57,50,181,161,55,93
61,270,209,-165,-74,240,55,46,177,157,54,92
61,269,208,-165,-73,239,53,42,172,153,51,91
60,268,208,-164,-74,238,52,39,168,149,49,90
59,266,207,-162,-74,237,50,36,163,145,47,89
58,264,206,-161,-74,235,49,32,156,140,43,86
57,262,205,-159,-74,234,47,28,149,133,38,83
55,258,203,-156,-74,231,46,25,143,127,35,81
54,254,200,-154,-73,227,45,22,136,121,31,78
52,250,198,-151,-73,224,44,18,129,114,26,75
51,247,196,-149,-72,222,42,13,120,106,20,71
50,243,193,-146,-71,218,40,9,112,99,16,69
48,239,191,-143,-71,215,39,5,104,92,11,66
47,235,188,-141,-70,212,36,-1,95,84,6,63
46,231,185,-138,-69,208,35,-5,87,76,1,60
44,227,183,-135,-69,205,34,-9,78,67,-4,57
43,222,179,-132,-68,201,33,-13,70,59,-9,54
42,218,176,-130,-67,197,32,-16,63,51,-14,51
41,213,172,-127,-65,193,31,-19,55,44,-18,48
40,208,168,-124,-64,188,30,-23,48,37,-23,44
39,204,165,-121,-63,185,28,-27,40,30,-28,40
38,199,161,-118,-61,180,27,-29,33,25,-32,38
37,195,158,-116,-60,177,26,-32,26,19,-35,35
36,191,155,-113,-59,173,26,-35,20,14,-39,33
35,187,152,-111,-58,170,25,-38,14,8,-44,29
34,184,150,-109,-58,167,25,-40,8,3,-47,27
33,180,147,-106,-57,164,24,-43,2,-3,-51,25
33,177,144,-105,-55,161,22,-45,-3,-8,-54,22
32,174,142,-103,-55,158,22,-46,-6,-11,-57,21
31,171,140,-101,-54,156,21,-48,-11,-15,-60,19
31,169,138,-100,-53,154,20,-50,-14,-18,-62,17
31,167,136,-99,-52,152,19,-53,-18,-22,-65,15
31,165,134,-98,-51,150,19,-54,-21,-24,-66,14
30,163,133,-96,-51,148,19,-56,-23,-27,-67,13
30,161,131,-95,-50,146,19,-56,-25,-29,-69,12
30,160,130,-95,-50,145,18,-58,-28,-32,-70,11
30,158,128,-94,-49,143,18,-57,-30,-34,-71,11
30,157,127,-93,-48,142,18,-58,-33,-36,-73,9
29,155,126,-92,-48,141,18,-58,-35,-38,-75,9
29,154,125,-91,-48,140,17,-59,-38,-39,-76,7
29,153,124,-91,-47,139,17,-59,-39,-40,-77,7
29,152,123,-90,-47,138,17,-60,-41,-42,-78,7
29,152,123,-90,-47,138,16,-61,-42,-42,-79,6
29,152,123,-90,-47,138,16,-61,-43,-43,-79,6
29,152,123,-90,-47,138,16,-62,-44,-44,-80,6
29,151,122,-90,-46,137,16,-62,-45,-45,-80,5
29,151,122,-90,-46,137,16,-62,-45,-46,-81,5
29,150,121,-89,-46,136,17,-62,-45,-46,-80,5
29,150,121,-89,-46,136,16,-63,-46,-47,-81,4
29,149,120,-89,-45,135,16,-63,-47,-48,-82,4
29,149,120,-89,-45,135,16,-63,-47,-48,-82,3
29,149,120,-89,-45,135,16,-63,-47,-48,-82,3
29,149,120,-89,-45,135,15,-64,-47,-48,-82,4
29,149,120,-89,-45,135,15,-64,-47,-49,-83,4
29,149,120,-89,-45,135,15,-63,-48,-49,-83,4
28,149,121,-88,-46,135,15,-62,-48,-49,-83,4
28,149,121,-88,-46,135,15,-62,-49,-50,-83,4
28,149,121,-88,-46,135,15,-62,-50,-50,-84,4
27,149,122,-88,-47,136,16,-60,-49,-49,-83,5
27,149,122,-88,-47,136,15,-60,-48,-48,-83,4
27,148,121,-87,-47,135,16,-60,-48,-48,-83,3
27,149,122,-88,-47,136,16,-60,-47,-48,-83,3
27,149,122,-88,-47,136,15,-60,-47,-49,-82,3
27,149,122,-88,-47,136,15,-60,-47,-49,-82,2
27,149,122,-88,-47,136,16,-60,-47,-50,-83,2
27,150,123,-88,-48,137,15,-62,-49,-51,-84,1
27,150,123,-88,-48,137,15,-62,-49,-52,-84,2
27,149,122,-88,-47,136,15,-61,-49,-51,-83,3
28,149,121,-88,-46,135,15,-62,-50,-53,-84,2
28,149,121,-88,-46,135,15,-62,-51,-53,-85,2
27,149,122,-88,-47,136,15,-61,-49,-52,-83,3
27,149,122,-88,-47,136,15,-60,-48,-51,-83,3
26,149,123,-87,-48,136,15,-60,-47,-51,-83,3
26,149,123,-87,-48,136,15,-60,-47,-50,-83,3
26,150,124,-88,-49,137,15,-60,-47,-49,-82,3
26,150,124,-88,-49,137,16,-59,-47,-49,-82,4
27,150,123,-88,-48,137,15,-60,-49,-50,-84,3
27,150,123,-88,-48,137,15,-60,-50,-50,-84,2
27,150,123,-88,-48,137,15,-60,-50,-50,-85,2
27,150,123,-88,-48,137,15,-60,-50,-51,-86,2
26,150,124,-88,-49,137,15,-60,-50,-50,-85,3
26,150,124,-88,-49,137,15,-60,-49,-50,-84,3
26,151,125,-88,-49,138,14,-60,-50,-51,-85,2
"
		27","
		152","
		125","
		-89","
		-49","
		139","
		15","
		-60","
		-50","
		-51","
		-85","
		3"
27,152,125,-89,-49,139,15,-60,-50,-51,-84,3
27,153,126,-90,-49,140,15,-61,-51,-51,-84,3
27,154,127,-90,-50,141,15,-61,-52,-52,-84,2
27,154,127,-90,-50,141,16,-61,-52,-52,-85,2
27,153,126,-90,-49,140,16,-61,-51,-52,-85,2
27,153,126,-90,-49,140,15,-61,-51,-52,-85,1
27,152,125,-89,-49,139,16,-60,-50,-51,-85,2
27,152,125,-89,-49,139,15,-60,-50,-51,-85,3
27,152,125,-89,-49,139,15,-59,-49,-50,-84,4
28,153,125,-90,-48,139,14,-60,-51,-51,-84,3
28,153,125,-90,-48,139,14,-60,-51,-52,-84,3
27,154,127,-90,-50,141,14,-60,-52,-52,-84,3
28,154,126,-91,-49,140,14,-60,-53,-52,-84,3
28,153,125,-90,-48,139,14,-60,-53,-52,-84,2
28,153,125,-90,-48,139,14,-60,-53,-53,-85,2
28,153,125,-90,-48,139,14,-60,-53,-52,-84,2
28,153,125,-90,-48,139,13,-60,-52,-51,-83,3
28,153,125,-90,-48,139,13,-60,-52,-51,-82,3
28,153,125,-90,-48,139,14,-61,-51,-51,-82,3
27,154,127,-90,-50,141,14,-62,-51,-50,-81,4
28,154,126,-91,-49,140,14,-62,-52,-51,-81,4
28,154,126,-91,-49,140,14,-62,-53,-52,-82,3
28,155,127,-91,-49,141,13,-63,-54,-53,-83,2
28,155,127,-91,-49,141,13,-62,-55,-53,-83,2
28,154,126,-91,-49,140,14,-61,-54,-52,-82,3
29,154,125,-91,-48,140,13,-61,-55,-53,-84,1
29,154,125,-91,-48,140,13,-61,-55,-53,-84,1
29,154,125,-91,-48,140,13,-61,-55,-52,-83,2
29,155,126,-92,-48,141,13,-61,-56,-52,-83,2
29,155,126,-92,-48,141,13,-61,-56,-52,-83,2
29,156,127,-92,-49,142,14,-61,-56,-52,-83,3
28,156,128,-92,-50,142,14,-60,-56,-52,-84,3
28,156,128,-92,-50,142,14,-60,-56,-53,-84,3
28,156,128,-92,-50,142,14,-61,-57,-53,-84,3
28,156,128,-92,-50,142,14,-61,-57,-54,-85,2
28,155,127,-91,-49,141,13,-63,-57,-54,-86,1
27,155,128,-91,-50,142,14,-63,-57,-54,-85,1
27,154,127,-90,-50,141,13,-64,-57,-54,-85,1
26,154,128,-90,-51,141,12,-64,-58,-54,-85,0
26,154,128,-90,-51,141,12,-64,-58,-54,-85,0
26,154,128,-90,-51,141,12,-64,-58,-54,-84,1
27,154,127,-90,-50,141,12,-63,-58,-54,-84,2
27,154,127,-90,-50,141,12,-62,-58,-54,-84,2
28,154,126,-91,-49,140,12,-62,-58,-54,-84,1
28,153,125,-90,-48,139,12,-62,-57,-54,-84,1
28,154,126,-91,-49,140,12,-62,-57,-54,-85,1
29,154,125,-91,-48,140,11,-64,-59,-56,-87,-1
29,153,124,-91,-47,139,11,-63,-58,-56,-86,0
29,153,124,-91,-47,139,11,-64,-59,-56,-86,1
30,154,124,-92,-47,139,10,-65,-60,-58,-88,0
30,154,124,-92,-47,139,10,-65,-60,-58,-88,0
30,154,124,-92,-47,139,11,-65,-61,-59,-87,0
30,154,124,-92,-47,139,11,-65,-62,-60,-87,0
30,154,124,-92,-47,139,11,-65,-62,-60,-88,0
29,154,125,-91,-48,140,11,-65,-62,-60,-88,-1
29,154,125,-91,-48,140,11,-65,-63,-61,-88,-1
29,154,125,-91,-48,140,11,-66,-63,-61,-87,-1
29,154,125,-91,-48,140,11,-66,-64,-61,-87,-1
29,153,124,-91,-47,139,11,-66,-63,-60,-86,0
29,153,124,-91,-47,139,11,-66,-64,-60,-85,0
29,153,124,-91,-47,139,11,-66,-64,-61,-85,0
29,153,124,-91,-47,139,11,-65,-65,-62,-85,0
29,152,123,-90,-47,138,11,-65,-65,-62,-85,0
29,151,122,-90,-46,137,10,-65,-66,-62,-86,-1
29,151,122,-90,-46,137,11,-64,-65,-62,-87,-1
30,151,121,-90,-45,136,11,-64,-65,-61,-87,-1
30,150,120,-90,-45,135,11,-64,-65,-61,-87,-2
30,150,120,-90,-45,135,11,-65,-65,-60,-87,-2
30,151,121,-90,-45,136,12,-65,-65,-59,-87,-1
30,152,122,-91,-46,137,12,-65,-65,-59,-87,-1
30,151,121,-90,-45,136,12,-65,-65,-59,-86,-1
29,151,122,-90,-46,137,12,-66,-66,-60,-86,-2
29,152,123,-90,-47,138,12,-66,-67,-60,-87,-2
29,152,123,-90,-47,138,12,-66,-67,-61,-88,-2
29,152,123,-90,-47,138,11,-66,-67,-62,-90,-3
29,152,123,-90,-47,138,11,-67,-67,-63,-91,-3
29,152,123,-90,-47,138,10,-67,-67,-64,-92,-3
29,152,123,-90,-47,138,10,-67,-67,-64,-93,-2
29,152,123,-90,-47,138,10,-67,-67,-63,-93,-3
29,151,122,-90,-46,137,10,-67,-67,-63,-93,-3
29,152,123,-90,-47,138,10,-66,-67,-63,-92,-2
29,152,123,-90,-47,138,11,-66,-67,-63,-92,-2
29,152,123,-90,-47,138,10,-66,-68,-64,-93,-3
29,152,123,-90,-47,138,10,-66,-69,-64,-93,-3
29,152,123,-90,-47,138,10,-66,-69,-64,-93,-3
28,152,124,-90,-48,138,10,-66,-70,-64,-93,-3
28,152,124,-90,-48,138,9,-67,-70,-64,-93,-3
28,151,123,-89,-47,137,10,-66,-68,-62,-92,-2
28,151,123,-89,-47,137,10,-66,-67,-62,-91,-2
28,151,123,-89,-47,137,10,-66,-67,-63,-91,-2
28,151,123,-89,-47,137,10,-66,-67,-63,-91,-2
29,151,122,-90,-46,137,9,-67,-68,-64,-92,-3
29,151,122,-90,-46,137,10,-67,-68,-64,-91,-3
29,151,122,-90,-46,137,10,-67,-68,-64,-91,-3
30,152,122,-91,-46,137,10,-67,-69,-64,-91,-3
30,152,122,-91,-46,137,11,-67,-69,-63,-92,-3
30,152,122,-91,-46,137,11,-67,-69,-63,-92,-3
30,152,122,-91,-46,137,11,-67,-69,-62,-91,-3
30,152,122,-91,-46,137,11,-66,-69,-62,-91,-3
30,152,122,-91,-46,137,12,-66,-68,-61,-91,-3
29,152,123,-90,-47,138,12,-66,-69,-62,-91,-3
29,151,122,-90,-46,137,12,-66,-69,-62,-91,-4
29,151,122,-90,-46,137,12,-66,-69,-63,-92,-4
29,151,122,-90,-46,137,12,-67,-70,-63,-92,-5
28,150,122,-89,-47,136,12,-66,-69,-63,-92,-4
28,150,122,-89,-47,136,12,-67,-70,-65,-92,-5
28,150,122,-89,-47,136,11,-68,-70,-65,-92,-4
28,150,122,-89,-47,136,11,-68,-71,-65,-92,-4
28,150,122,-89,-47,136,11,-68,-71,-65,-92,-3
28,150,122,-89,-47,136,10,-68,-72,-65,-92,-3
28,151,123,-89,-47,137,10,-68,-73,-64,-92,-3
29,151,122,-90,-46,137,10,-68,-74,-65,-93,-3
29,151,122,-90,-46,137,10,-67,-74,-65,-93,-4
29,151,122,-90,-46,137,10,-67,-73,-65,-92,-5
29,151,122,-90,-46,137,10,-67,-72,-64,-92,-5
29,151,122,-90,-46,137,10,-67,-72,-64,-92,-5
29,150,121,-89,-46,136,11,-66,-70,-63,-91,-4
29,150,121,-89,-46,136,11,-67,-69,-63,-90,-3
28,150,122,-89,-47,136,11,-67,-69,-62,-90,-3
28,150,122,-89,-47,136,11,-67,-70,-62,-90,-3
28,149,121,-88,-46,135,10,-68,-71,-63,-91,-3
28,149,121,-88,-46,135,10,-68,-72,-64,-92,-3
29,149,120,-89,-45,135,9,-67,-71,-64,-92,-4
29,149,120,-89,-45,135,9,-67,-71,-64,-93,-4
29,149,120,-89,-45,135,9,-66,-70,-64,-93,-4
29,149,120,-89,-45,135,10,-66,-69,-64,-93,-4
29,150,121,-89,-46,136,10,-66,-68,-64,-93,-4
30,151,121,-90,-45,136,10,-67,-69,-64,-93,-5
30,151,121,-90,-45,136,9,-67,-69,-65,-93,-5
30,151,121,-90,-45,136,10,-67,-70,-65,-93,-5
29,151,122,-90,-46,137,10,-67,-70,-65,-93,-5
29,151,122,-90,-46,137,10,-67,-71,-65,-93,-5
29,151,122,-90,-46,137,10,-67,-71,-66,-93,-5
29,150,121,-89,-46,136,11,-66,-70,-65,-92,-4
29,150,121,-89,-46,136,11,-66,-70,-66,-93,-5
29,150,121,-89,-46,136,11,-66,-70,-66,-93,-4
29,150,121,-89,-46,136,10,-66,-69,-65,-93,-4
29,150,121,-89,-46,136,10,-67,-69,-66,-93,-5
28,150,122,-89,-47,136,10,-67,-69,-66,-93,-5
28,150,122,-89,-47,136,10,-67,-69,-65,-94,-6
28,151,123,-89,-47,137,10,-66,-69,-65,-93,-5
28,151,123,-89,-47,137,11,-66,-69,-64,-92,-5
28,152,124,-90,-48,138,10,-67,-70,-65,-93,-6
28,152,124,-90,-48,138,10,-67,-70,-65,-94,-6
29,152,123,-90,-47,138,11,-67,-70,-65,-93,-6
29,152,123,-90,-47,138,11,-67,-69,-65,-93,-5
30,152,122,-91,-46,137,11,-67,-69,-64,-93,-5
30,151,121,-90,-45,136,11,-67,-70,-64,-93,-5
30,151,121,-90,-45,136,10,-66,-70,-64,-93,-5
30,151,121,-90,-45,136,11,-66,-71,-65,-93,-5
30,151,121,-90,-45,136,10,-66,-71,-65,-93,-6
30,151,121,-90,-45,136,10,-65,-71,-65,-94,-7
30,151,121,-90,-45,136,10,-65,-71,-66,-94,-7
29,151,122,-90,-46,137,10,-66,-71,-66,-94,-7
29,151,122,-90,-46,137,10,-67,-72,-66,-93,-8
29,151,122,-90,-46,137,10,-67,-71,-66,-93,-7
29,151,122,-90,-46,137,10,-67,-71,-65,-92,-6
29,151,122,-90,-46,137,10,-67,-71,-65,-92,-6
29,152,123,-90,-47,138,10,-67,-72,-65,-92,-6
29,153,124,-91,-47,139,11,-67,-72,-66,-92,-6
30,153,123,-91,-46,138,10,-68,-73,-67,-94,-7
30,153,123,-91,-46,138,10,-67,-73,-68,-94,-7
29,153,124,-91,-47,139,11,-66,-73,-67,-94,-7
29,153,124,-91,-47,139,11,-66,-73,-68,-94,-7
29,153,124,-91,-47,139,11,-66,-74,-69,-95,-6
30,153,123,-91,-46,138,10,-67,-75,-70,-96,-7
30,153,123,-91,-46,138,11,-67,-75,-70,-96,-8
30,153,123,-91,-46,138,11,-67,-75,-70,-96,-7
30,153,123,-91,-46,138,11,-67,-75,-69,-95,-7
30,154,124,-92,-47,139,10,-67,-73,-68,-95,-7
31,154,123,-92,-46,139,11,-66,-72,-67,-94,-7
31,155,124,-93,-46,140,10,-67,-73,-68,-94,-7
32,155,123,-93,-45,139,9,-67,-73,-69,-95,-7
32,155,123,-93,-45,139,9,-67,-73,-68,-95,-7
32,155,123,-93,-45,139,9,-66,-72,-67,-94,-7
32,154,122,-93,-45,138,9,-67,-72,-68,-94,-7
31,154,123,-92,-46,139,10,-66,-72,-68,-94,-6
31,154,123,-92,-46,139,9,-66,-72,-67,-94,-7
31,153,122,-92,-45,138,9,-66,-72,-67,-94,-7
31,153,122,-92,-45,138,10,-66,-73,-67,-94,-7
31,153,122,-92,-45,138,10,-66,-74,-67,-94,-6
32,154,122,-93,-45,138,10,-67,-75,-68,-94,-7
32,153,121,-92,-44,137,11,-66,-74,-67,-93,-6
31,153,122,-92,-45,138,11,-66,-74,-67,-94,-7
32,154,122,-93,-45,138,10,-66,-74,-68,-94,-8
32,154,122,-93,-45,138,11,-66,-73,-67,-94,-8
32,155,123,-93,-45,139,10,-66,-73,-68,-94,-9
31,155,124,-93,-46,140,10,-66,-72,-68,-95,-9
31,155,124,-93,-46,140,10,-66,-73,-68,-94,-9
31,155,124,-93,-46,140,10,-66,-73,-68,-94,-9
30,155,125,-92,-47,140,10,-66,-73,-67,-93,-8
30,154,124,-92,-47,139,10,-66,-74,-68,-94,-9
29,154,125,-91,-48,140,10,-66,-74,-69,-95,-9
30,154,124,-92,-47,139,10,-66,-74,-69,-95,-9
30,154,124,-92,-47,139,10,-66,-75,-69,-95,-9
30,154,124,-92,-47,139,10,-66,-74,-70,-96,-9
31,155,124,-93,-46,140,8,-67,-75,-70,-98,-10
31,155,124,-93,-46,140,8,-67,-75,-70,-97,-9
30,154,124,-92,-47,139,9,-66,-75,-70,-95,-8
30,154,124,-92,-47,139,9,-66,-75,-70,-96,-8
30,155,125,-92,-47,140,9,-66,-75,-70,-96,-8
30,155,125,-92,-47,140,9,-66,-75,-69,-96,-8
29,155,126,-92,-48,141,9,-66,-75,-70,-96,-8
29,154,125,-91,-48,140,10,-66,-75,-70,-96,-9
30,154,124,-92,-47,139,10,-66,-75,-69,-96,-10
30,154,124,-92,-47,139,10,-66,-75,-69,-94,-9
30,154,124,-92,-47,139,9,-66,-75,-69,-94,-8
29,153,124,-91,-47,139,10,-65,-74,-68,-93,-8
29,153,124,-91,-47,139,10,-65,-74,-68,-94,-10
29,153,124,-91,-47,139,10,-65,-75,-68,-94,-10
29,153,124,-91,-47,139,10,-66,-75,-69,-95,-10
29,154,125,-91,-48,140,9,-66,-76,-71,-96,-11
29,154,125,-91,-48,140,9,-66,-77,-71,-95,-11
29,155,126,-92,-48,141,9,-65,-76,-71,-96,-11
29,155,126,-92,-48,141,9,-65,-76,-70,-95,-11
29,155,126,-92,-48,141,9,-65,-75,-70,-95,-10
30,155,125,-92,-47,140,9,-66,-75,-69,-95,-10
30,155,125,-92,-47,140,9,-66,-75,-69,-95,-10
30,155,125,-92,-47,140,9,-67,-75,-69,-96,-11
30,155,125,-92,-47,140,9,-68,-75,-69,-95,-11
31,155,124,-93,-46,140,8,-69,-77,-70,-95,-12
31,155,124,-93,-46,140,8,-68,-77,-70,-95,-11
31,155,124,-93,-46,140,7,-68,-77,-70,-96,-11
31,155,124,-93,-46,140,7,-67,-77,-70,-96,-11
31,155,124,-93,-46,140,7,-66,-76,-70,-96,-11
30,155,125,-92,-47,140,7,-65,-75,-69,-95,-10
30,154,124,-92,-47,139,7,-66,-75,-70,-96,-10
30,155,125,-92,-47,140,8,-66,-75,-70,-96,-10
30,154,124,-92,-47,139,8,-66,-75,-70,-95,-10
30,154,124,-92,-47,139,8,-66,-76,-70,-95,-11
30,154,124,-92,-47,139,9,-66,-76,-70,-95,-10
30,155,125,-92,-47,140,10,-65,-76,-70,-96,-9
30,155,125,-92,-47,140,10,-65,-75,-70,-95,-9
30,155,125,-92,-47,140,10,-64,-76,-70,-94,-10
30,156,126,-93,-48,141,9,-65,-76,-71,-95,-11
30,156,126,-93,-48,141,9,-65,-76,-71,-95,-11
30,156,126,-93,-48,141,8,-65,-76,-71,-95,-12
31,155,124,-93,-46,140,8,-66,-76,-71,-95,-13
31,155,124,-93,-46,140,7,-66,-76,-70,-95,-13
32,155,123,-93,-45,139,7,-67,-76,-70,-95,-13
32,154,122,-93,-45,138,7,-67,-76,-69,-95,-13
31,154,123,-92,-46,139,8,-66,-75,-68,-94,-13
31,154,123,-92,-46,139,8,-65,-75,-68,-94,-13
31,155,124,-93,-46,140,6,-66,-77,-70,-95,-14
31,155,124,-93,-46,140,6,-66,-77,-71,-95,-13
30,156,126,-93,-48,141,6,-66,-77,-72,-95,-14
30,156,126,-93,-48,141,7,-66,-77,-72,-95,-14
30,157,127,-93,-48,142,7,-66,-76,-71,-95,-13
31,157,126,-94,-47,142,7,-66,-76,-71,-94,-12
31,158,127,-94,-48,143,7,-66,-76,-71,-95,-13
31,158,127,-94,-48,143,8,-66,-76,-71,-95,-13
31,157,126,-94,-47,142,10,-64,-74,-70,-94,-12
32,157,125,-94,-46,141,9,-65,-74,-71,-94,-13
31,157,126,-94,-47,142,10,-64,-74,-71,-94,-12
31,157,126,-94,-47,142,10,-64,-75,-71,-94,-13
31,157,126,-94,-47,142,10,-64,-75,-71,-93,-13
31,157,126,-94,-47,142,9,-65,-76,-71,-93,-13
31,157,126,-94,-47,142,9,-66,-76,-70,-93,-13
31,157,126,-94,-47,142,9,-66,-77,-69,-93,-13
31,157,126,-94,-47,142,8,-66,-77,-69,-93,-13
31,157,126,-94,-47,142,8,-66,-78,-69,-93,-13
31,157,126,-94,-47,142,8,-66,-78,-69,-94,-13
31,157,126,-94,-47,142,8,-65,-78,-70,-95,-13
31,157,126,-94,-47,142,8,-65,-77,-70,-95,-14
31,157,126,-94,-47,142,8,-65,-76,-69,-94,-13
32,158,126,-95,-47,142,8,-65,-76,-70,-95,-14
32,158,126,-95,-47,142,8,-65,-75,-70,-95,-14
33,158,125,-95,-46,142,9,-65,-74,-69,-95,-14
33,158,125,-95,-46,142,9,-66,-74,-67,-93,-14
33,158,125,-95,-46,142,9,-66,-74,-67,-93,-14
33,159,126,-96,-46,143,7,-66,-76,-69,-95,-15
33,158,125,-95,-46,142,8,-65,-75,-68,-94,-14
33,158,125,-95,-46,142,8,-64,-75,-68,-94,-15
33,158,125,-95,-46,142,8,-64,-75,-69,-95,-15
33,159,126,-96,-46,143,6,-65,-76,-70,-96,-16
33,158,125,-95,-46,142,7,-65,-75,-69,-95,-15
33,158,125,-95,-46,142,7,-65,-74,-68,-95,-15
33,158,125,-95,-46,142,7,-65,-74,-68,-95,-15
32,158,126,-95,-47,142,7,-65,-75,-68,-95,-15
32,159,127,-95,-47,143,7,-65,-75,-68,-96,-16
32,159,127,-95,-47,143,7,-65,-76,-69,-96,-16
32,159,127,-95,-47,143,7,-64,-76,-70,-96,-15
32,159,127,-95,-47,143,7,-64,-77,-70,-97,-16
32,159,127,-95,-47,143,7,-64,-77,-70,-97,-16
32,158,126,-95,-47,142,8,-65,-77,-71,-97,-16
33,158,125,-95,-46,142,8,-64,-77,-70,-97,-15
33,158,125,-95,-46,142,8,-64,-76,-69,-97,-15
33,159,126,-96,-46,143,7,-65,-77,-70,-98,-16
33,159,126,-96,-46,143,7,-65,-78,-71,-98,-16
32,159,127,-95,-47,143,8,-65,-76,-70,-97,-15
33,160,127,-96,-47,144,7,-65,-77,-70,-98,-15
33,160,127,-96,-47,144,8,-64,-77,-69,-97,-15
32,160,128,-96,-48,144,7,-65,-77,-69,-97,-15
32,160,128,-96,-48,144,7,-65,-77,-69,-96,-15
33,160,127,-96,-47,144,7,-65,-77,-69,-96,-15
33,160,127,-96,-47,144,7,-64,-77,-69,-97,-15
33,160,127,-96,-47,144,6,-65,-77,-71,-97,-15
33,160,127,-96,-47,144,6,-65,-78,-72,-97,-15
33,160,127,-96,-47,144,6,-64,-77,-72,-97,-14
"
		33","
		160","
		127","
		-96","
		-47","
		144","
		6","
		-64","
		-76","
		-72","
		-97","
		-14"
33,160,127,-96,-47,144,6,-64,-76,-71,-96,-14
33,160,127,-96,-47,144,6,-64,-76,-71,-95,-14
33,161,128,-97,-47,145,6,-64,-76,-70,-95,-13
34,160,126,-97,-46,143,6,-64,-75,-70,-95,-13
34,160,126,-97,-46,143,6,-64,-75,-69,-95,-13
33,160,127,-96,-47,144,6,-64,-76,-70,-95,-14
33,160,127,-96,-47,144,6,-65,-77,-70,-95,-14
33,160,127,-96,-47,144,6,-65,-77,-70,-95,-14
33,161,128,-97,-47,145,6,-64,-77,-69,-96,-14
33,161,128,-97,-47,145,6,-65,-78,-69,-96,-14
33,161,128,-97,-47,145,6,-66,-78,-70,-96,-14
33,161,128,-97,-47,145,6,-65,-78,-70,-96,-14
34,161,127,-97,-46,144,5,-66,-78,-70,-96,-15
34,161,127,-97,-46,144,5,-65,-77,-70,-96,-14
33,161,128,-97,-47,145,6,-64,-75,-69,-95,-13
33,162,129,-97,-48,146,5,-64,-75,-69,-96,-14
34,162,128,-98,-47,145,6,-64,-74,-68,-95,-14
34,163,129,-98,-47,146,6,-64,-73,-67,-95,-14
34,163,129,-98,-47,146,6,-64,-73,-68,-95,-14
34,164,130,-99,-48,147,6,-64,-75,-68,-95,-14
35,165,130,-100,-47,148,7,-63,-75,-68,-94,-14
36,166,130,-101,-47,148,6,-64,-76,-69,-95,-14
36,167,131,-101,-47,149,7,-63,-76,-69,-94,-14
37,168,131,-102,-47,150,7,-62,-76,-69,-94,-14
37,169,132,-103,-47,151,9,-62,-75,-68,-93,-13
38,170,132,-104,-47,151,8,-62,-74,-68,-94,-13
38,171,133,-104,-47,152,9,-62,-73,-67,-93,-13
37,171,134,-104,-48,153,10,-61,-72,-66,-93,-13
38,171,133,-104,-47,152,10,-60,-70,-65,-92,-12
38,172,134,-105,-48,153,10,-60,-70,-64,-92,-12
38,173,135,-105,-48,154,10,-59,-69,-63,-91,-11
38,173,135,-105,-48,154,10,-58,-68,-62,-90,-11
38,173,135,-105,-48,154,10,-57,-67,-61,-90,-10
38,173,135,-105,-48,154,11,-56,-67,-62,-89,-9
38,173,135,-105,-48,154,10,-56,-68,-63,-90,-10
38,172,134,-105,-48,153,10,-56,-68,-63,-91,-11
39,172,133,-105,-47,153,11,-55,-67,-63,-90,-11
39,171,132,-105,-46,152,12,-54,-67,-63,-90,-11
39,171,132,-105,-46,152,12,-53,-66,-63,-90,-12
40,171,131,-105,-45,151,13,-52,-65,-62,-90,-11
41,171,130,-106,-44,151,13,-51,-64,-61,-89,-10
41,172,131,-106,-45,152,13,-51,-64,-62,-89,-10
41,173,132,-107,-45,153,12,-51,-64,-61,-89,-10
41,173,132,-107,-45,153,11,-52,-64,-61,-88,-9
42,173,131,-107,-44,152,9,-53,-65,-62,-88,-9
42,173,131,-107,-44,152,7,-55,-67,-62,-89,-9
41,172,131,-106,-45,152,5,-57,-68,-63,-90,-9
41,172,131,-106,-45,152,4,-59,-69,-64,-91,-9
41,171,130,-106,-44,151,4,-60,-70,-65,-91,-9
40,170,130,-105,-45,150,3,-60,-71,-66,-91,-9
40,170,130,-105,-45,150,4,-60,-70,-67,-91,-9
41,170,129,-105,-44,150,5,-59,-70,-66,-90,-9
41,169,128,-105,-43,149,5,-58,-70,-66,-90,-9
41,169,128,-105,-43,149,5,-58,-70,-66,-91,-10
42,168,126,-105,-42,147,6,-58,-69,-65,-90,-9
42,168,126,-105,-42,147,6,-58,-69,-64,-90,-9
43,169,126,-106,-41,148,6,-58,-69,-63,-90,-8
43,169,126,-106,-41,148,6,-58,-69,-62,-89,-7
43,169,126,-106,-41,148,6,-59,-70,-63,-89,-6
43,169,126,-106,-41,148,5,-59,-70,-64,-89,-6
42,169,127,-105,-42,148,5,-60,-72,-66,-90,-6
41,168,127,-104,-43,148,5,-60,-72,-66,-90,-7
40,166,126,-103,-43,146,5,-61,-73,-67,-92,-8
38,165,127,-101,-44,146,5,-62,-74,-70,-93,-9
37,164,127,-100,-45,146,6,-63,-75,-71,-95,-10
36,164,128,-100,-46,146,7,-62,-75,-71,-95,-11
34,163,129,-98,-47,146,7,-62,-75,-71,-96,-12
33,163,130,-98,-48,147,7,-63,-76,-72,-97,-13
33,163,130,-98,-48,147,7,-63,-76,-72,-97,-13
33,163,130,-98,-48,147,7,-63,-76,-72,-97,-14
32,163,131,-97,-49,147,6,-63,-77,-72,-99,-14
33,162,129,-97,-48,146,6,-64,-78,-73,-99,-14
33,162,129,-97,-48,146,6,-64,-78,-73,-98,-14
33,162,129,-97,-48,146,7,-64,-78,-73,-98,-14
33,162,129,-97,-48,146,7,-64,-78,-73,-99,-14
33,162,129,-97,-48,146,6,-65,-78,-74,-99,-13
33,162,129,-97,-48,146,6,-65,-79,-74,-98,-13
33,162,129,-97,-48,146,7,-65,-79,-74,-98,-13
33,162,129,-97,-48,146,7,-65,-79,-75,-100,-13
33,162,129,-97,-48,146,7,-65,-79,-74,-100,-13
33,162,129,-97,-48,146,7,-66,-80,-74,-99,-12
34,162,128,-98,-47,145,8,-65,-79,-73,-99,-12
34,163,129,-98,-47,146,8,-65,-79,-73,-99,-12
33,163,130,-98,-48,147,8,-65,-78,-72,-99,-12
33,163,130,-98,-48,147,8,-64,-79,-73,-98,-12
33,163,130,-98,-48,147,8,-64,-79,-73,-99,-12
32,163,131,-97,-49,147,8,-65,-79,-74,-100,-13
31,163,132,-97,-50,148,9,-64,-78,-73,-99,-12
31,163,132,-97,-50,148,8,-65,-78,-73,-99,-12
31,163,132,-97,-50,148,8,-65,-79,-74,-100,-13
31,163,132,-97,-50,148,8,-66,-79,-73,-100,-13
31,163,132,-97,-50,148,8,-65,-78,-72,-99,-14
31,164,133,-97,-51,149,7,-66,-79,-73,-100,-14
31,164,133,-97,-51,149,7,-65,-78,-73,-100,-13
31,164,133,-97,-51,149,6,-65,-78,-72,-100,-13
31,164,133,-97,-51,149,7,-64,-77,-72,-99,-13
31,163,132,-97,-50,148,8,-63,-76,-71,-98,-12
31,163,132,-97,-50,148,8,-63,-76,-71,-98,-11
30,163,133,-96,-51,148,8,-63,-76,-71,-99,-12
30,163,133,-96,-51,148,8,-62,-75,-71,-100,-13
30,162,132,-96,-51,147,9,-62,-75,-72,-100,-13
30,161,131,-95,-50,146,11,-59,-73,-70,-100,-14
30,159,129,-94,-49,144,12,-56,-71,-70,-102,-16
29,157,128,-93,-49,143,16,-52,-68,-69,-103,-17
30,156,126,-93,-48,141,18,-49,-64,-67,-104,-19
30,155,125,-92,-47,140,22,-43,-58,-63,-103,-19
31,154,123,-92,-46,139,24,-39,-52,-59,-102,-20
33,155,122,-94,-44,139,26,-36,-46,-55,-101,-20
35,158,123,-96,-44,141,27,-33,-40,-50,-99,-19
38,161,123,-99,-42,142,28,-28,-31,-41,-94,-17
42,164,122,-103,-40,143,30,-21,-20,-30,-86,-12
45,169,124,-107,-39,147,33,-13,-6,-16,-78,-6
50,176,126,-113,-38,151,37,-3,11,1,-66,1
54,186,132,-120,-39,159,40,8,31,21,-51,11
59,200,141,-129,-41,171,41,18,53,45,-32,24
64,220,156,-142,-46,188,38,22,73,70,-10,41
69,245,176,-157,-53,211,28,17,91,98,17,61
75,275,200,-175,-62,238,8,1,101,125,47,83
80,308,228,-194,-74,268,-19,-28,103,149,77,107
85,340,255,-212,-85,298,-52,-66,97,171,107,132
88,369,281,-228,-96,325,-86,-109,86,190,133,153
87,391,304,-239,-108,348,-117,-154,72,203,153,169
82,404,322,-243,-120,363,-140,-198,52,206,162,177
73,407,334,-240,-130,371,-155,-234,28,196,159,178
61,397,336,-229,-137,367,-160,-260,-2,173,145,171
48,376,328,-212,-140,352,-159,-279,-43,130,116,152
33,347,314,-190,-140,331,-150,-290,-93,72,76,128
18,314,296,-166,-139,305,-137,-292,-146,5,28,98
5,278,273,-141,-134,276,-122,-286,-196,-62,-21,66
-5,245,250,-120,-127,248,-108,-277,-238,-121,-67,35
-14,218,232,-102,-123,225,-95,-265,-267,-165,-103,9
-19,198,217,-89,-118,208,-84,-252,-280,-193,-130,-11
-21,183,204,-81,-112,194,-77,-239,-281,-204,-147,-26
-18,172,190,-77,-104,181,-73,-227,-272,-203,-155,-34
-13,166,179,-76,-96,173,-73,-216,-260,-196,-156,-38
-7,161,168,-77,-87,165,-70,-202,-243,-185,-153,-38
0,155,155,-77,-77,155,-64,-186,-224,-172,-149,-38
7,150,143,-78,-68,147,-58,-169,-206,-159,-144,-37
13,147,134,-80,-60,141,-49,-151,-186,-146,-138,-34
18,144,126,-81,-54,135,-38,-132,-166,-133,-132,-32
23,142,119,-82,-48,131,-27,-114,-147,-121,-126,-29
26,142,116,-84,-45,129,-16,-98,-129,-108,-119,-26
29,145,116,-87,-43,131,-6,-84,-112,-96,-113,-22
31,150,119,-90,-44,135,3,-70,-95,-84,-107,-17
33,157,124,-95,-45,141,9,-59,-82,-74,-101,-13
34,165,131,-99,-48,148,13,-51,-70,-66,-95,-9
35,172,137,-103,-51,155,15,-46,-62,-59,-90,-5
35,178,143,-106,-54,161,15,-42,-55,-53,-85,-2
35,183,148,-109,-56,166,16,-39,-50,-50,-82,-1
35,186,151,-110,-58,169,16,-38,-47,-48,-81,0
35,187,152,-111,-58,170,16,-38,-45,-47,-81,-1
34,187,153,-110,-59,170,17,-36,-42,-45,-80,-1
34,186,152,-110,-59,169,17,-36,-40,-45,-82,-2
34,186,152,-110,-59,169,19,-35,-39,-45,-83,-1
35,186,151,-110,-58,169,19,-34,-38,-44,-82,-1
35,185,150,-110,-57,168,20,-34,-37,-43,-82,-1
35,185,150,-110,-57,168,21,-33,-36,-42,-82,-1
36,186,150,-111,-57,168,21,-33,-36,-42,-81,-1
36,187,151,-111,-57,169,21,-31,-35,-40,-79,-1
36,187,151,-111,-57,169,22,-30,-33,-40,-79,-2
35,187,152,-111,-58,170,22,-29,-33,-40,-78,-2
36,187,151,-111,-57,169,23,-27,-32,-40,-78,-1
36,187,151,-111,-57,169,23,-27,-30,-39,-78,-1
37,187,150,-112,-56,169,23,-27,-29,-38,-78,-1
37,187,150,-112,-56,169,24,-27,-28,-37,-78,-1
38,188,150,-113,-56,169,24,-27,-28,-36,-77,-1
39,189,150,-114,-55,170,23,-28,-28,-35,-78,-2
39,189,150,-114,-55,170,24,-27,-26,-34,-77,-2
39,190,151,-114,-56,171,25,-26,-26,-35,-76,-1
39,190,151,-114,-56,171,25,-25,-25,-34,-75,-1
38,190,152,-114,-57,171,25,-24,-24,-33,-75,-1
38,190,152,-114,-57,171,25,-23,-24,-33,-75,-1
38,190,152,-114,-57,171,25,-23,-23,-33,-76,-1
39,189,150,-114,-55,170,25,-23,-22,-33,-75,-1
39,190,151,-114,-56,171,25,-23,-21,-31,-75,0
40,190,150,-115,-55,170,26,-22,-19,-30,-74,1
40,191,151,-115,-55,171,25,-23,-20,-30,-74,1
41,192,151,-116,-55,172,26,-22,-19,-29,-73,1
41,192,151,-116,-55,172,27,-20,-18,-28,-72,1
41,193,152,-117,-55,173,26,-20,-18,-28,-73,0
41,193,152,-117,-55,173,27,-18,-17,-28,-73,0
41,193,152,-117,-55,173,27,-17,-16,-27,-73,1
41,193,152,-117,-55,173,27,-17,-14,-26,-72,1
42,193,151,-117,-54,172,28,-16,-12,-24,-72,1
42,194,152,-118,-55,173,28,-15,-11,-22,-71,2
42,194,152,-118,-55,173,28,-15,-10,-21,-70,3
42,195,153,-118,-55,174,27,-16,-10,-21,-69,2
42,195,153,-118,-55,174,28,-15,-10,-20,-68,2
42,196,154,-119,-56,175,28,-14,-9,-20,-68,2
41,196,155,-118,-57,176,29,-14,-9,-20,-67,3
41,196,155,-118,-57,176,29,-13,-8,-20,-67,2
41,197,156,-119,-57,177,30,-13,-6,-19,-68,2
41,197,156,-119,-57,177,31,-12,-4,-18,-68,2
41,198,157,-119,-58,178,31,-12,-2,-16,-67,3
42,198,156,-120,-57,177,30,-12,-1,-14,-67,3
42,199,157,-120,-57,178,31,-11,0,-12,-66,3
43,200,157,-121,-57,179,31,-10,0,-12,-65,3
43,200,157,-121,-57,179,31,-9,0,-10,-63,5
43,201,158,-122,-57,180,32,-7,1,-9,-62,5
43,201,158,-122,-57,180,32,-6,2,-9,-62,5
43,202,159,-122,-58,181,33,-5,3,-8,-62,5
43,202,159,-122,-58,181,33,-4,5,-7,-61,5
43,202,159,-122,-58,181,34,-2,9,-5,-60,6
44,203,159,-123,-57,181,34,-2,11,-4,-60,6
45,204,159,-124,-57,182,33,-3,12,-4,-60,6
45,205,160,-125,-57,183,34,-2,14,-2,-58,7
45,206,161,-125,-58,184,35,0,17,0,-57,7
45,207,162,-126,-58,185,35,0,17,0,-56,7
45,207,162,-126,-58,185,35,1,17,1,-55,8
45,207,162,-126,-58,185,36,2,19,2,-54,8
45,208,163,-126,-59,186,37,4,20,5,-53,8
45,208,163,-126,-59,186,38,6,22,7,-52,9
46,209,163,-127,-58,186,37,6,24,8,-52,9
46,210,164,-128,-59,187,37,7,26,10,-51,10
47,211,164,-129,-58,188,37,8,28,12,-50,10
47,212,165,-129,-59,189,38,9,30,14,-49,11
47,213,166,-130,-59,190,38,10,32,16,-47,12
47,214,167,-130,-60,191,38,11,33,18,-46,13
47,216,169,-131,-61,193,39,13,36,20,-44,14
47,216,169,-131,-61,193,40,15,39,22,-43,15
47,217,170,-132,-61,194,40,16,41,23,-43,14
48,217,169,-132,-60,193,41,18,44,25,-42,15
48,218,170,-133,-61,194,42,19,47,28,-40,16
49,220,171,-134,-61,196,41,20,49,29,-40,16
50,221,171,-135,-60,196,41,21,50,31,-39,16
50,222,172,-136,-61,197,42,23,53,33,-37,18
51,224,173,-137,-61,199,42,24,55,36,-36,19
51,224,173,-137,-61,199,43,27,57,38,-33,21
52,223,171,-137,-59,197,44,30,60,41,-31,22
52,223,171,-137,-59,197,45,33,63,44,-29,23
53,225,172,-139,-59,199,46,35,65,46,-29,24
53,224,171,-138,-59,198,47,37,69,49,-27,25
54,221,167,-137,-56,194,49,40,74,53,-23,28
55,221,166,-138,-55,194,49,41,77,56,-22,29
55,228,173,-141,-59,201,48,40,78,57,-21,28
55,231,176,-143,-60,204,48,41,81,60,-20,29
56,228,172,-142,-58,200,49,44,85,65,-16,33
56,229,173,-142,-58,201,49,45,87,68,-14,34
56,238,182,-147,-63,210,47,45,88,68,-13,34
57,244,187,-150,-65,216,46,47,90,70,-13,34
57,244,187,-150,-65,216,47,50,94,74,-10,36
58,247,189,-152,-65,218,48,52,98,77,-7,37
59,256,197,-157,-69,227,45,51,99,78,-8,35
59,262,203,-160,-72,233,45,52,102,80,-6,36
60,263,203,-161,-71,233,46,54,107,85,-3,38
61,265,204,-163,-71,235,47,56,111,89,0,40
62,268,206,-165,-72,237,46,57,113,92,3,42
63,269,206,-166,-71,238,48,60,118,97,7,45
64,269,205,-166,-70,237,49,62,121,100,9,47
65,270,205,-167,-70,238,50,65,126,105,13,50
66,272,206,-169,-70,239,50,67,129,108,15,52
67,273,206,-170,-69,240,50,69,132,112,18,54
68,275,207,-171,-69,241,50,70,135,115,20,55
68,277,209,-172,-70,243,50,72,138,119,22,57
69,279,210,-174,-70,245,49,73,141,122,25,59
70,282,212,-176,-71,247,49,74,143,126,28,61
71,284,213,-177,-71,249,49,75,146,129,31,62
72,287,215,-179,-71,251,49,76,148,132,34,64
73,289,216,-181,-71,253,49,78,151,135,36,66
73,292,219,-182,-73,256,49,79,154,138,38,67
74,294,220,-184,-73,257,49,79,157,140,40,68
75,296,221,-185,-73,259,49,80,160,143,42,69
75,298,223,-186,-74,261,48,80,162,146,44,71
76,300,224,-188,-74,262,48,80,164,148,46,72
77,301,224,-189,-73,263,47,80,165,150,47,73
77,303,226,-190,-74,265,47,80,167,152,50,76
78,305,227,-191,-74,266,47,80,166,153,51,77
78,306,228,-192,-75,267,46,79,165,153,52,77
77,307,230,-192,-76,269,45,78,164,153,52,78
77,308,231,-192,-77,270,45,77,163,153,53,78
77,309,232,-193,-77,271,44,76,162,152,53,78
76,309,233,-192,-78,271,43,73,160,151,52,78
75,309,234,-192,-79,272,42,71,159,149,51,78
75,309,234,-192,-79,272,41,68,157,148,50,77
76,308,232,-192,-78,270,40,66,154,145,49,76
75,308,233,-191,-79,271,40,63,151,143,47,76
74,307,233,-190,-79,270,38,60,146,139,44,74
73,306,233,-189,-80,270,37,57,141,134,41,72
73,304,231,-188,-79,268,37,54,135,129,38,70
72,301,229,-186,-78,265,36,50,129,122,33,67
70,298,228,-184,-79,263,35,47,123,116,29,65
68,295,227,-181,-79,261,34,42,116,108,24,61
67,291,224,-179,-78,258,33,39,109,102,20,58
65,288,223,-176,-79,256,33,35,103,95,15,55
63,283,220,-173,-78,252,31,30,95,88,10,52
62,279,217,-170,-77,248,30,25,87,80,5,49
60,275,215,-167,-77,245,30,21,78,73,0,46
59,271,212,-165,-76,242,28,15,69,64,-6,41
58,267,209,-162,-75,238,28,11,60,56,-11,38
56,263,207,-159,-75,235,27,7,52,49,-16,34
55,259,204,-157,-74,232,26,4,45,41,-21,31
53,255,202,-154,-74,229,26,1,39,34,-26,28
52,250,198,-151,-73,224,25,-3,32,27,-31,25
51,245,194,-148,-71,220,24,-6,26,21,-35,22
50,240,190,-145,-70,215,23,-9,20,14,-40,19
48,236,188,-142,-70,212,22,-12,14,8,-44,17
47,232,185,-139,-69,209,21,-16,7,1,-48,14
46,229,183,-137,-68,206,21,-18,0,-4,-52,12
45,226,181,-135,-68,204,20,-21,-7,-10,-56,9
"
		44","
		223","
		179","
		-133","
		-67","
		201","
		19","
		-24","
		-13","
		-15","
		-60","
		6"
44,220,176,-132,-66,198,18,-26,-17,-20,-63,4
43,217,174,-130,-65,196,18,-27,-20,-23,-65,3
42,215,173,-128,-65,194,17,-29,-23,-26,-68,0
41,212,171,-126,-65,192,17,-32,-26,-29,-70,-1
41,210,169,-125,-64,190,16,-33,-28,-32,-72,-2
40,208,168,-124,-64,188,16,-35,-31,-34,-74,-3
39,206,167,-122,-64,187,16,-36,-34,-37,-76,-5
39,204,165,-121,-63,185,14,-38,-38,-40,-79,-7
39,202,163,-120,-62,183,14,-39,-40,-42,-80,-7
38,201,163,-119,-62,182,14,-39,-43,-44,-82,-8
37,199,162,-118,-62,181,14,-40,-45,-46,-83,-9
37,198,161,-117,-62,180,13,-42,-48,-48,-85,-11
36,197,161,-116,-62,179,13,-42,-50,-49,-85,-11
36,196,160,-116,-62,178,12,-44,-52,-51,-86,-12
36,195,159,-115,-61,177,12,-45,-54,-52,-87,-13
36,195,159,-115,-61,177,11,-47,-55,-53,-88,-13
36,194,158,-115,-61,176,12,-47,-54,-52,-88,-12
36,194,158,-115,-61,176,13,-47,-54,-53,-88,-13
36,194,158,-115,-61,176,13,-47,-54,-53,-89,-13
37,194,157,-115,-60,176,12,-48,-56,-55,-91,-14
37,193,156,-115,-59,175,13,-46,-55,-55,-90,-14
37,193,156,-115,-59,175,13,-46,-55,-56,-90,-14
38,193,155,-115,-58,174,12,-46,-56,-57,-91,-15
38,193,155,-115,-58,174,12,-46,-57,-58,-91,-15
38,192,154,-115,-58,173,13,-46,-56,-57,-90,-14
38,192,154,-115,-58,173,13,-47,-56,-57,-90,-14
37,193,156,-115,-59,175,14,-47,-57,-57,-90,-13
37,193,156,-115,-59,175,14,-47,-58,-58,-90,-13
37,193,156,-115,-59,175,14,-47,-59,-58,-91,-14
37,193,156,-115,-59,175,14,-47,-59,-58,-91,-14
37,193,156,-115,-59,175,14,-47,-59,-58,-92,-14
36,193,157,-114,-60,175,13,-47,-60,-58,-92,-14
37,192,155,-114,-59,174,13,-47,-60,-58,-92,-14
37,192,155,-114,-59,174,13,-47,-59,-57,-92,-15
37,192,155,-114,-59,174,12,-47,-59,-57,-92,-15
36,192,156,-114,-60,174,12,-47,-59,-57,-92,-15
36,192,156,-114,-60,174,12,-47,-59,-56,-91,-15
37,192,155,-114,-59,174,12,-47,-59,-56,-91,-14
36,192,156,-114,-60,174,12,-47,-59,-56,-91,-14
36,192,156,-114,-60,174,12,-46,-59,-56,-91,-14
36,192,156,-114,-60,174,13,-46,-59,-56,-91,-14
37,192,155,-114,-59,174,13,-46,-59,-57,-91,-14
37,192,155,-114,-59,174,13,-46,-58,-57,-92,-14
37,192,155,-114,-59,174,13,-46,-58,-57,-92,-15
37,192,155,-114,-59,174,13,-46,-59,-57,-92,-15
37,192,155,-114,-59,174,13,-46,-59,-57,-91,-14
38,193,155,-115,-58,174,13,-47,-60,-58,-92,-15
38,193,155,-115,-58,174,13,-47,-60,-58,-92,-15
38,193,155,-115,-58,174,13,-47,-60,-58,-92,-15
38,193,155,-115,-58,174,13,-47,-60,-58,-92,-15
37,194,157,-115,-60,176,13,-47,-60,-58,-92,-15
37,194,157,-115,-60,176,12,-47,-59,-58,-92,-15
37,194,157,-115,-60,176,12,-47,-59,-57,-92,-14
37,194,157,-115,-60,176,12,-47,-59,-57,-91,-14
37,193,156,-115,-59,175,13,-46,-58,-56,-90,-13
37,194,157,-115,-60,176,12,-47,-59,-57,-91,-14
38,194,156,-116,-59,175,13,-47,-59,-57,-90,-14
38,194,156,-116,-59,175,13,-47,-59,-58,-90,-14
38,194,156,-116,-59,175,13,-47,-60,-58,-90,-14
38,194,156,-116,-59,175,13,-47,-60,-59,-90,-14
38,195,157,-116,-59,176,13,-47,-60,-59,-90,-14
38,195,157,-116,-59,176,13,-47,-60,-59,-90,-13
38,194,156,-116,-59,175,13,-47,-60,-60,-90,-14
38,194,156,-116,-59,175,13,-48,-60,-60,-91,-14
38,193,155,-115,-58,174,12,-48,-61,-59,-91,-14
38,193,155,-115,-58,174,12,-47,-61,-59,-90,-14
38,193,155,-115,-58,174,12,-47,-61,-59,-91,-14
38,193,155,-115,-58,174,12,-47,-62,-59,-91,-15
38,194,156,-116,-59,175,12,-46,-61,-58,-91,-14
39,195,156,-117,-58,176,11,-47,-62,-59,-91,-15
39,195,156,-117,-58,176,12,-47,-62,-59,-92,-15
39,195,156,-117,-58,176,12,-46,-62,-59,-92,-15
39,195,156,-117,-58,176,13,-47,-61,-59,-91,-15
39,195,156,-117,-58,176,13,-47,-61,-59,-91,-15
39,195,156,-117,-58,176,13,-47,-61,-59,-91,-15
39,195,156,-117,-58,176,13,-48,-61,-59,-90,-15
39,196,157,-117,-59,177,13,-48,-61,-59,-90,-14
40,196,156,-118,-58,176,13,-48,-62,-59,-90,-14
40,196,156,-118,-58,176,13,-49,-62,-60,-91,-14
39,196,157,-117,-59,177,13,-49,-63,-61,-91,-14
40,196,156,-118,-58,176,12,-48,-63,-61,-91,-14
40,195,155,-117,-57,175,12,-48,-63,-61,-91,-14
40,195,155,-117,-57,175,12,-48,-64,-62,-92,-15
39,195,156,-117,-58,176,11,-48,-65,-62,-91,-15
39,195,156,-117,-58,176,12,-48,-65,-62,-91,-14
39,195,156,-117,-58,176,12,-48,-65,-62,-91,-15
39,195,156,-117,-58,176,11,-48,-66,-62,-91,-15
39,195,156,-117,-58,176,11,-48,-66,-62,-91,-15
38,195,157,-116,-59,176,13,-48,-65,-61,-90,-14
38,196,158,-117,-60,177,12,-49,-66,-63,-92,-15
38,195,157,-116,-59,176,13,-48,-66,-62,-91,-14
39,195,156,-117,-58,176,11,-49,-68,-63,-93,-16
39,194,155,-116,-58,175,12,-49,-68,-63,-92,-15
38,194,156,-116,-59,175,12,-49,-68,-63,-92,-16
38,194,156,-116,-59,175,12,-50,-68,-62,-92,-16
38,193,155,-115,-58,174,12,-50,-68,-62,-92,-16
39,194,155,-116,-58,175,11,-50,-68,-63,-92,-15
39,194,155,-116,-58,175,12,-50,-68,-63,-93,-15
39,194,155,-116,-58,175,12,-50,-68,-63,-92,-15
39,194,155,-116,-58,175,12,-50,-68,-63,-93,-15
39,194,155,-116,-58,175,12,-50,-68,-63,-93,-15
39,194,155,-116,-58,175,12,-50,-68,-64,-94,-16
39,193,154,-116,-57,174,12,-50,-69,-65,-94,-16
38,192,154,-115,-58,173,12,-50,-69,-64,-94,-16
38,192,154,-115,-58,173,12,-50,-70,-65,-94,-16
37,192,155,-114,-59,174,12,-51,-70,-65,-94,-15
38,193,155,-115,-58,174,11,-52,-72,-67,-95,-16
38,193,155,-115,-58,174,11,-53,-72,-67,-95,-16
38,193,155,-115,-58,174,11,-53,-73,-67,-95,-16
38,193,155,-115,-58,174,11,-53,-73,-67,-95,-16
38,194,156,-116,-59,175,11,-52,-72,-67,-96,-16
38,194,156,-116,-59,175,11,-52,-73,-67,-96,-17
39,194,155,-116,-58,175,11,-52,-73,-67,-96,-18
39,194,155,-116,-58,175,11,-52,-73,-67,-96,-18
39,193,154,-116,-57,174,11,-52,-73,-67,-96,-18
40,193,153,-116,-56,173,11,-52,-74,-68,-96,-18
40,193,153,-116,-56,173,11,-53,-74,-68,-96,-17
40,192,152,-116,-56,172,11,-53,-75,-68,-96,-17
40,192,152,-116,-56,172,11,-53,-75,-69,-96,-17
39,192,153,-115,-57,173,12,-54,-75,-69,-96,-17
39,191,152,-115,-56,172,12,-53,-74,-69,-96,-17
39,191,152,-115,-56,172,12,-53,-74,-69,-96,-18
39,191,152,-115,-56,172,12,-53,-73,-69,-97,-18
39,191,152,-115,-56,172,11,-53,-73,-69,-97,-18
39,191,152,-115,-56,172,11,-53,-73,-70,-97,-19
39,191,152,-115,-56,172,11,-53,-73,-70,-97,-19
40,191,151,-115,-55,171,10,-53,-74,-71,-98,-19
39,191,152,-115,-56,172,11,-52,-74,-71,-97,-18
39,191,152,-115,-56,172,11,-53,-75,-71,-98,-18
38,191,153,-114,-57,172,11,-53,-77,-72,-98,-18
38,191,153,-114,-57,172,12,-53,-78,-72,-98,-18
38,191,153,-114,-57,172,12,-53,-79,-72,-98,-19
38,191,153,-114,-57,172,12,-53,-79,-72,-98,-19
38,191,153,-114,-57,172,12,-53,-78,-71,-97,-19
38,191,153,-114,-57,172,12,-53,-77,-71,-97,-19
39,190,151,-114,-56,171,12,-54,-76,-71,-97,-19
38,190,152,-114,-57,171,12,-54,-76,-71,-98,-19
39,191,152,-115,-56,172,12,-54,-76,-71,-98,-18
39,191,152,-115,-56,172,12,-54,-76,-71,-98,-18
38,191,153,-114,-57,172,12,-54,-77,-72,-98,-19
38,191,153,-114,-57,172,12,-55,-78,-72,-99,-19
38,191,153,-114,-57,172,12,-55,-78,-72,-99,-19
38,191,153,-114,-57,172,12,-55,-78,-72,-99,-19
37,190,153,-113,-58,172,13,-54,-77,-71,-98,-18
37,190,153,-113,-58,172,13,-54,-77,-71,-98,-18
37,190,153,-113,-58,172,13,-54,-77,-71,-98,-18
37,190,153,-113,-58,172,13,-55,-78,-72,-98,-18
37,190,153,-113,-58,172,13,-54,-78,-72,-98,-18
37,190,153,-113,-58,172,13,-54,-78,-73,-99,-18
37,190,153,-113,-58,172,13,-53,-78,-73,-99,-18
38,191,153,-114,-57,172,13,-54,-79,-74,-99,-18
38,191,153,-114,-57,172,13,-54,-79,-74,-99,-18
38,191,153,-114,-57,172,13,-54,-79,-74,-99,-18
38,190,152,-114,-57,171,13,-55,-79,-73,-99,-18
38,190,152,-114,-57,171,13,-55,-79,-73,-99,-18
38,190,152,-114,-57,171,13,-56,-80,-73,-99,-18
38,190,152,-114,-57,171,13,-56,-80,-73,-99,-18
38,190,152,-114,-57,171,12,-55,-80,-74,-99,-18
38,191,153,-114,-57,172,13,-54,-80,-74,-99,-18
38,191,153,-114,-57,172,13,-54,-79,-74,-99,-18
39,191,152,-115,-56,172,13,-53,-79,-74,-99,-18
39,191,152,-115,-56,172,13,-53,-79,-74,-99,-17
39,191,152,-115,-56,172,12,-53,-79,-73,-100,-17
39,191,152,-115,-56,172,12,-53,-79,-73,-100,-18
39,190,151,-114,-56,171,12,-53,-80,-73,-101,-18
39,190,151,-114,-56,171,12,-54,-80,-73,-101,-17
39,191,152,-115,-56,172,12,-54,-80,-73,-102,-17
39,191,152,-115,-56,172,12,-54,-79,-73,-102,-17
39,191,152,-115,-56,172,13,-54,-79,-73,-102,-18
39,191,152,-115,-56,172,13,-54,-79,-73,-102,-18
40,191,151,-115,-55,171,12,-54,-79,-74,-102,-18
40,191,151,-115,-55,171,12,-54,-80,-74,-102,-18
40,191,151,-115,-55,171,12,-54,-80,-75,-102,-19
40,190,150,-115,-55,170,12,-53,-80,-73,-100,-18
39,190,151,-114,-56,171,12,-53,-80,-73,-100,-18
39,190,151,-114,-56,171,13,-53,-80,-73,-100,-18
39,190,151,-114,-56,171,13,-53,-80,-73,-100,-18
39,190,151,-114,-56,171,13,-52,-80,-72,-100,-18
39,190,151,-114,-56,171,13,-52,-79,-72,-100,-18
39,191,152,-115,-56,172,14,-52,-79,-72,-100,-18
39,191,152,-115,-56,172,14,-52,-79,-72,-100,-18
39,191,152,-115,-56,172,14,-52,-78,-72,-100,-18
40,192,152,-116,-56,172,13,-53,-79,-73,-101,-19
40,192,152,-116,-56,172,12,-54,-79,-73,-101,-19
40,192,152,-116,-56,172,12,-54,-79,-73,-101,-18
41,192,151,-116,-55,172,12,-54,-79,-73,-100,-19
41,192,151,-116,-55,172,12,-54,-79,-73,-100,-18
42,193,151,-117,-54,172,11,-54,-80,-74,-101,-19
42,193,151,-117,-54,172,11,-54,-81,-74,-100,-18
42,193,151,-117,-54,172,12,-54,-81,-74,-100,-18
42,192,150,-117,-54,171,12,-54,-81,-75,-100,-19
42,192,150,-117,-54,171,12,-53,-81,-75,-101,-18
42,193,151,-117,-54,172,12,-53,-81,-75,-100,-19
42,193,151,-117,-54,172,12,-53,-81,-75,-100,-19
42,193,151,-117,-54,172,12,-53,-81,-74,-100,-19
42,193,151,-117,-54,172,12,-53,-81,-74,-100,-18
43,193,150,-118,-53,172,12,-53,-80,-74,-100,-17
43,194,151,-118,-54,173,12,-54,-82,-75,-101,-18
43,194,151,-118,-54,173,12,-54,-82,-75,-101,-18
43,194,151,-118,-54,173,12,-54,-82,-75,-101,-18
43,194,151,-118,-54,173,12,-53,-81,-75,-101,-18
43,194,151,-118,-54,173,12,-53,-81,-75,-102,-18
43,195,152,-119,-54,174,11,-53,-82,-76,-102,-18
44,195,151,-119,-53,173,11,-53,-82,-75,-102,-18
43,195,152,-119,-54,174,11,-53,-82,-75,-102,-18
43,194,151,-118,-54,173,11,-54,-83,-75,-102,-18
43,194,151,-118,-54,173,11,-55,-84,-75,-102,-18
43,194,151,-118,-54,173,11,-55,-84,-75,-102,-18
44,194,150,-119,-53,172,11,-55,-84,-75,-102,-18
44,194,150,-119,-53,172,11,-54,-84,-75,-103,-18
44,193,149,-118,-52,171,11,-54,-84,-74,-103,-19
44,193,149,-118,-52,171,10,-54,-83,-74,-103,-19
43,194,151,-118,-54,173,10,-54,-82,-74,-103,-19
43,194,151,-118,-54,173,10,-54,-82,-74,-103,-20
42,193,151,-117,-54,172,11,-53,-81,-73,-102,-19
42,194,152,-118,-55,173,11,-53,-81,-73,-102,-19
42,194,152,-118,-55,173,11,-53,-81,-73,-102,-19
42,193,151,-117,-54,172,11,-54,-82,-73,-102,-19
42,193,151,-117,-54,172,11,-54,-83,-73,-103,-19
42,192,150,-117,-54,171,12,-54,-83,-74,-103,-19
41,192,151,-116,-55,172,13,-52,-82,-73,-102,-18
42,193,151,-117,-54,172,12,-53,-83,-74,-103,-19
42,193,151,-117,-54,172,12,-53,-82,-73,-103,-19
42,193,151,-117,-54,172,12,-52,-81,-73,-102,-19
41,192,151,-116,-55,172,13,-51,-79,-72,-101,-18
41,192,151,-116,-55,172,12,-52,-79,-72,-102,-18
41,192,151,-116,-55,172,12,-52,-79,-72,-102,-18
41,191,150,-116,-54,171,12,-52,-80,-72,-102,-18
41,191,150,-116,-54,171,11,-52,-81,-73,-103,-18
41,191,150,-116,-54,171,11,-52,-82,-73,-103,-18
41,192,151,-116,-55,172,11,-52,-82,-73,-103,-18
41,192,151,-116,-55,172,11,-51,-82,-73,-103,-18
41,192,151,-116,-55,172,11,-52,-82,-74,-103,-18
41,193,152,-117,-55,173,10,-53,-83,-75,-103,-19
41,193,152,-117,-55,173,10,-54,-83,-75,-103,-19
41,193,152,-117,-55,173,10,-54,-83,-74,-103,-19
41,193,152,-117,-55,173,10,-55,-83,-74,-102,-19
42,194,152,-118,-55,173,10,-55,-83,-75,-102,-19
42,194,152,-118,-55,173,10,-54,-84,-74,-102,-19
42,195,153,-118,-55,174,9,-55,-85,-75,-103,-20
42,195,153,-118,-55,174,9,-54,-85,-75,-103,-20
42,195,153,-118,-55,174,9,-54,-85,-75,-103,-20
42,194,152,-118,-55,173,10,-53,-83,-74,-102,-19
41,194,153,-117,-56,174,10,-53,-83,-74,-102,-19
41,194,153,-117,-56,174,10,-53,-83,-74,-102,-19
41,194,153,-117,-56,174,10,-53,-83,-74,-101,-19
41,193,152,-117,-55,173,10,-54,-83,-74,-101,-19
40,193,153,-116,-56,173,11,-53,-82,-73,-100,-18
40,194,154,-117,-57,174,10,-54,-83,-74,-101,-19
40,194,154,-117,-57,174,10,-54,-83,-74,-101,-19
41,194,153,-117,-56,174,10,-54,-83,-74,-101,-18
41,194,153,-117,-56,174,11,-54,-83,-74,-101,-19
41,194,153,-117,-56,174,11,-54,-83,-74,-101,-18
41,195,154,-118,-56,175,11,-54,-83,-73,-101,-18
42,195,153,-118,-55,174,10,-55,-84,-74,-102,-19
42,194,152,-118,-55,173,11,-54,-83,-73,-100,-17
42,194,152,-118,-55,173,11,-53,-83,-73,-100,-17
43,194,151,-118,-54,173,10,-54,-84,-74,-101,-18
43,195,152,-119,-54,174,11,-53,-83,-74,-101,-18
43,195,152,-119,-54,174,11,-53,-83,-74,-101,-18
43,194,151,-118,-54,173,10,-53,-83,-75,-102,-18
43,194,151,-118,-54,173,10,-53,-82,-74,-102,-18
43,195,152,-119,-54,174,10,-53,-82,-74,-102,-18
43,195,152,-119,-54,174,10,-53,-82,-75,-103,-19
43,194,151,-118,-54,173,9,-54,-83,-75,-103,-19
42,195,153,-118,-55,174,9,-54,-84,-75,-104,-19
42,195,153,-118,-55,174,9,-55,-85,-74,-104,-20
42,195,153,-118,-55,174,10,-55,-86,-74,-103,-20
42,195,153,-118,-55,174,10,-54,-87,-74,-103,-20
41,195,154,-118,-56,175,10,-53,-85,-74,-102,-19
41,195,154,-118,-56,175,10,-52,-85,-74,-102,-19
41,195,154,-118,-56,175,11,-52,-84,-74,-102,-19
41,195,154,-118,-56,175,11,-52,-83,-74,-101,-19
41,195,154,-118,-56,175,11,-52,-82,-74,-101,-19
41,195,154,-118,-56,175,10,-52,-82,-74,-101,-19
41,195,154,-118,-56,175,11,-53,-82,-74,-101,-19
41,195,154,-118,-56,175,10,-53,-83,-75,-101,-19
41,194,153,-117,-56,174,10,-53,-83,-75,-101,-19
41,194,153,-117,-56,174,10,-53,-83,-75,-102,-20
41,194,153,-117,-56,174,10,-52,-84,-76,-102,-20
40,194,154,-117,-57,174,10,-52,-84,-76,-103,-20
40,194,154,-117,-57,174,10,-52,-84,-76,-103,-20
40,194,154,-117,-57,174,10,-52,-84,-75,-103,-20
40,194,154,-117,-57,174,9,-52,-84,-75,-103,-20
40,194,154,-117,-57,174,9,-53,-84,-75,-102,-20
40,194,154,-117,-57,174,8,-53,-84,-75,-102,-19
40,194,154,-117,-57,174,8,-54,-85,-74,-101,-19
39,194,155,-116,-58,175,9,-53,-84,-73,-100,-18
39,194,155,-116,-58,175,9,-53,-84,-73,-100,-18
40,194,154,-117,-57,174,8,-53,-85,-74,-101,-19
40,193,153,-116,-56,173,9,-52,-84,-73,-100,-18
40,193,153,-116,-56,173,9,-52,-84,-73,-99,-18
40,193,153,-116,-56,173,9,-52,-84,-73,-99,-17
41,194,153,-117,-56,174,8,-53,-85,-75,-101,-18
41,194,153,-117,-56,174,9,-53,-85,-75,-101,-19
41,194,153,-117,-56,174,9,-53,-85,-74,-101,-19
41,194,153,-117,-56,174,9,-53,-85,-74,-101,-19
41,194,153,-117,-56,174,9,-53,-85,-74,-102,-19
40,194,154,-117,-57,174,9,-52,-85,-74,-102,-20
"
		40","
		194","
		154","
		-117","
		-57","
		174","
		9","
		-52","
		-85","
		-74","
		-102","
		-20"
40,195,155,-117,-57,175,9,-52,-85,-74,-102,-20
39,195,156,-117,-58,176,9,-53,-84,-74,-102,-20
39,195,156,-117,-58,176,9,-53,-84,-74,-102,-20
39,195,156,-117,-58,176,9,-53,-83,-74,-101,-20
39,196,157,-117,-59,177,9,-53,-83,-74,-101,-20
39,196,157,-117,-59,177,9,-53,-83,-74,-102,-21
39,196,157,-117,-59,177,10,-53,-83,-73,-102,-21
39,196,157,-117,-59,177,10,-52,-84,-73,-101,-20
39,196,157,-117,-59,177,10,-52,-84,-73,-101,-20
40,196,156,-118,-58,176,10,-51,-84,-73,-101,-20
40,196,156,-118,-58,176,10,-51,-84,-73,-101,-21
40,196,156,-118,-58,176,11,-51,-84,-73,-101,-24
40,196,156,-118,-58,176,11,-51,-85,-73,-100,-28
41,195,154,-118,-56,175,11,-52,-85,-74,-100,-33
41,195,154,-118,-56,175,11,-52,-85,-74,-100,-38
41,195,154,-118,-56,175,11,-52,-85,-74,-100,-44
41,195,154,-118,-56,175,11,-53,-84,-73,-100,-48
41,194,153,-117,-56,174,11,-53,-84,-73,-100,-51
41,194,153,-117,-56,174,11,-53,-84,-73,-100,-52
41,195,154,-118,-56,175,11,-53,-84,-73,-100,-53
40,195,155,-117,-57,175,10,-53,-83,-73,-100,-54
40,195,155,-117,-57,175,10,-53,-83,-73,-101,-55
40,195,155,-117,-57,175,9,-52,-83,-73,-101,-55
40,195,155,-117,-57,175,10,-52,-83,-73,-100,-55
40,196,156,-118,-58,176,10,-52,-83,-72,-100,-55
40,197,157,-118,-58,177,9,-53,-84,-73,-101,-57
40,196,156,-118,-58,176,10,-52,-83,-73,-100,-56
41,197,156,-119,-57,177,9,-52,-85,-74,-100,-57
41,198,157,-119,-58,178,9,-52,-84,-73,-100,-57
42,198,156,-120,-57,177,9,-53,-85,-75,-101,-58
42,197,155,-119,-56,176,10,-52,-84,-74,-100,-58
42,197,155,-119,-56,176,10,-52,-84,-75,-100,-58
42,197,155,-119,-56,176,10,-52,-84,-75,-100,-58
41,197,156,-119,-57,177,11,-52,-84,-75,-100,-58
41,196,155,-118,-57,176,11,-52,-84,-75,-101,-58
41,196,155,-118,-57,176,10,-52,-84,-76,-101,-58
41,197,156,-119,-57,177,11,-52,-84,-75,-101,-58
41,197,156,-119,-57,177,10,-52,-85,-75,-100,-57
41,197,156,-119,-57,177,10,-52,-85,-75,-100,-58
41,197,156,-119,-57,177,10,-52,-86,-76,-101,-58
41,197,156,-119,-57,177,10,-52,-86,-76,-101,-58
41,198,157,-119,-58,178,10,-51,-86,-76,-100,-58
41,197,156,-119,-57,177,10,-51,-85,-76,-100,-59
41,197,156,-119,-57,177,9,-51,-85,-76,-101,-59
41,197,156,-119,-57,177,9,-51,-85,-76,-101,-59
41,197,156,-119,-57,177,9,-51,-85,-76,-100,-59
41,197,156,-119,-57,177,9,-51,-85,-76,-100,-59
41,197,156,-119,-57,177,9,-52,-86,-76,-100,-59
41,197,156,-119,-57,177,9,-52,-86,-76,-100,-59
41,197,156,-119,-57,177,9,-52,-86,-75,-100,-59
41,197,156,-119,-57,177,9,-52,-86,-75,-101,-60
41,197,156,-119,-57,177,9,-52,-86,-76,-101,-60
41,198,157,-119,-58,178,9,-52,-86,-76,-101,-60
41,198,157,-119,-58,178,9,-53,-86,-75,-101,-60
41,198,157,-119,-58,178,9,-53,-86,-76,-101,-60
41,198,157,-119,-58,178,10,-53,-87,-76,-100,-60
41,198,157,-119,-58,178,10,-53,-86,-76,-100,-60
42,198,156,-120,-57,177,9,-54,-87,-77,-101,-61
41,198,157,-119,-58,178,10,-53,-87,-76,-100,-60
41,197,156,-119,-57,177,10,-53,-86,-76,-100,-60
41,198,157,-119,-58,178,10,-52,-86,-76,-100,-61
41,198,157,-119,-58,178,11,-52,-86,-76,-100,-61
41,198,157,-119,-58,178,11,-52,-85,-75,-99,-60
41,199,158,-120,-58,179,10,-52,-86,-76,-99,-61
42,199,157,-120,-57,178,10,-52,-85,-75,-99,-60
42,200,158,-121,-58,179,10,-52,-85,-74,-98,-59
43,201,158,-122,-57,180,9,-52,-85,-74,-98,-59
43,201,158,-122,-57,180,9,-51,-85,-74,-98,-59
44,202,158,-123,-57,180,9,-52,-86,-74,-99,-60
44,202,158,-123,-57,180,9,-51,-85,-74,-98,-60
45,203,158,-124,-56,181,10,-50,-84,-73,-98,-60
45,203,158,-124,-56,181,10,-49,-83,-73,-97,-59
45,203,158,-124,-56,181,11,-48,-82,-73,-97,-59
45,204,159,-124,-57,182,11,-48,-82,-73,-97,-59
46,204,158,-125,-56,181,12,-47,-81,-72,-96,-58
46,205,159,-125,-56,182,13,-46,-80,-71,-95,-57
45,206,161,-125,-58,184,14,-46,-79,-71,-94,-56
46,206,160,-126,-57,183,13,-46,-80,-71,-95,-57
46,207,161,-126,-57,184,14,-46,-79,-71,-94,-56
46,208,162,-127,-58,185,13,-45,-79,-71,-93,-56
47,207,160,-127,-56,184,13,-45,-79,-71,-93,-56
47,207,160,-127,-56,184,13,-45,-78,-71,-94,-56
48,206,158,-127,-55,182,13,-44,-78,-71,-94,-56
48,205,157,-126,-54,181,14,-44,-77,-70,-93,-56
49,205,156,-127,-53,181,14,-43,-76,-69,-93,-56
49,205,156,-127,-53,181,15,-42,-76,-69,-93,-56
50,205,155,-127,-52,180,15,-42,-76,-70,-93,-56
50,206,156,-128,-53,181,16,-40,-76,-69,-92,-55
50,207,157,-128,-53,182,16,-39,-74,-68,-91,-55
51,208,157,-129,-53,183,15,-39,-74,-68,-91,-55
51,208,157,-129,-53,183,15,-38,-74,-67,-90,-54
51,209,158,-130,-53,184,13,-39,-74,-67,-90,-53
51,210,159,-130,-54,185,10,-41,-75,-68,-91,-54
51,209,158,-130,-53,184,9,-42,-75,-67,-90,-53
51,209,158,-130,-53,184,8,-44,-76,-68,-90,-53
51,207,156,-129,-52,182,6,-46,-78,-69,-91,-54
52,206,154,-129,-51,180,5,-48,-79,-71,-91,-54
52,206,154,-129,-51,180,5,-49,-80,-71,-92,-55
52,205,153,-128,-50,179,6,-48,-78,-71,-91,-54
52,204,152,-128,-50,178,6,-48,-79,-71,-91,-54
52,203,151,-127,-49,177,6,-49,-79,-71,-91,-54
52,203,151,-127,-49,177,7,-49,-79,-71,-91,-54
52,203,151,-127,-49,177,6,-49,-79,-71,-90,-54
53,203,150,-128,-48,177,6,-49,-79,-71,-90,-53
53,203,150,-128,-48,177,6,-49,-80,-71,-89,-52
53,203,150,-128,-48,177,6,-50,-81,-71,-89,-52
52,202,150,-127,-49,176,6,-49,-82,-70,-89,-51
51,202,151,-126,-50,177,6,-50,-84,-72,-90,-52
50,201,151,-125,-50,176,6,-50,-86,-73,-92,-53
49,200,151,-124,-51,176,5,-51,-88,-75,-94,-55
47,198,151,-122,-52,175,6,-51,-87,-75,-95,-55
46,198,152,-122,-53,175,6,-52,-88,-77,-97,-58
44,198,154,-121,-55,176,7,-51,-87,-77,-98,-59
43,197,154,-120,-55,176,7,-52,-86,-77,-99,-59
42,197,155,-119,-56,176,8,-51,-84,-75,-98,-59
42,197,155,-119,-56,176,9,-51,-83,-75,-98,-59
41,197,156,-119,-57,177,8,-51,-83,-75,-98,-59
42,197,155,-119,-56,176,8,-51,-83,-75,-98,-59
42,197,155,-119,-56,176,8,-51,-84,-75,-98,-59
42,197,155,-119,-56,176,7,-51,-84,-76,-98,-60
42,197,155,-119,-56,176,7,-52,-85,-76,-98,-60
43,197,154,-120,-55,176,6,-52,-87,-77,-98,-61
43,197,154,-120,-55,176,6,-52,-87,-77,-98,-60
43,197,154,-120,-55,176,6,-52,-88,-77,-99,-60
43,197,154,-120,-55,176,6,-53,-89,-78,-99,-60
42,197,155,-119,-56,176,7,-52,-88,-77,-98,-59
42,196,154,-119,-56,175,7,-52,-88,-77,-98,-59
42,196,154,-119,-56,175,7,-52,-88,-78,-99,-60
41,195,154,-118,-56,175,7,-51,-87,-77,-98,-59
41,196,155,-118,-57,176,6,-52,-88,-78,-100,-61
40,196,156,-118,-58,176,7,-51,-87,-77,-99,-59
40,196,156,-118,-58,176,7,-52,-87,-77,-99,-59
40,197,157,-118,-58,177,6,-53,-88,-78,-100,-61
39,198,159,-118,-60,179,7,-53,-87,-78,-100,-60
39,199,160,-119,-60,180,7,-53,-87,-77,-100,-60
39,199,160,-119,-60,180,7,-53,-87,-77,-100,-59
39,199,160,-119,-60,180,7,-53,-87,-77,-100,-59
39,199,160,-119,-60,180,7,-52,-87,-77,-100,-59
40,199,159,-119,-59,179,7,-52,-87,-76,-100,-59
40,199,159,-119,-59,179,7,-52,-87,-76,-100,-59
39,199,160,-119,-60,180,7,-52,-88,-77,-100,-59
39,199,160,-119,-60,180,8,-52,-88,-77,-100,-59
39,199,160,-119,-60,180,8,-52,-88,-77,-100,-59
39,199,160,-119,-60,180,8,-52,-87,-77,-100,-59
39,198,159,-118,-60,179,8,-52,-87,-77,-100,-59
39,198,159,-118,-60,179,8,-52,-87,-77,-101,-60
39,198,159,-118,-60,179,8,-51,-87,-77,-101,-60
39,198,159,-118,-60,179,9,-50,-86,-77,-102,-60
38,198,160,-118,-61,179,11,-47,-84,-76,-102,-60
38,197,159,-117,-60,178,13,-44,-83,-76,-103,-61
39,195,156,-117,-58,176,15,-41,-80,-75,-104,-63
39,194,155,-116,-58,175,19,-36,-75,-72,-104,-64
39,192,153,-115,-57,173,22,-32,-70,-70,-105,-65
40,190,150,-115,-55,170,26,-27,-63,-65,-105,-66
42,189,147,-115,-52,168,27,-23,-55,-60,-104,-66
45,189,144,-117,-49,167,28,-18,-47,-53,-102,-66
48,191,143,-119,-47,167,30,-13,-37,-44,-97,-63
52,193,141,-122,-44,167,30,-8,-26,-33,-91,-60
56,197,141,-126,-42,169,31,-2,-13,-20,-83,-55
61,202,141,-131,-40,172,33,8,3,-3,-71,-47
66,211,145,-138,-39,178,35,18,22,18,-56,-38
71,223,152,-147,-40,188,37,29,43,41,-38,-26
75,240,165,-157,-45,203,37,38,66,68,-15,-10
81,262,181,-171,-50,222,32,42,88,99,12,10
86,289,203,-187,-58,246,21,36,107,132,44,32
92,319,227,-205,-67,273,3,17,118,165,78,57
96,350,254,-223,-79,302,-21,-13,121,195,111,83
100,377,277,-238,-88,327,-50,-52,115,220,139,104
100,398,298,-249,-99,348,-76,-94,107,240,162,121
96,411,315,-253,-109,363,-99,-139,92,251,175,131
87,415,328,-251,-120,372,-115,-180,70,247,176,132
75,407,332,-241,-128,370,-122,-211,42,226,162,124
60,389,329,-224,-134,359,-121,-232,6,186,133,107
43,365,322,-204,-139,344,-115,-247,-42,125,92,82
26,337,311,-181,-142,324,-105,-255,-97,53,44,53
11,307,296,-159,-142,302,-92,-252,-151,-21,-7,22
-1,278,279,-138,-140,279,-78,-242,-196,-87,-54,-7
-9,255,264,-123,-136,260,-69,-234,-233,-140,-94,-33
-15,238,253,-111,-134,246,-61,-224,-255,-175,-122,-52
-17,224,241,-103,-129,233,-56,-214,-263,-191,-140,-67
-15,214,229,-99,-122,222,-55,-205,-261,-193,-149,-76
-11,207,218,-98,-114,213,-57,-197,-254,-189,-151,-80
-6,202,208,-98,-107,205,-61,-190,-244,-182,-150,-82
0,196,196,-98,-98,196,-62,-181,-232,-173,-147,-83
6,191,185,-98,-89,188,-62,-169,-219,-164,-144,-83
12,186,174,-99,-81,180,-59,-157,-205,-154,-141,-82
18,183,165,-100,-73,174,-55,-143,-190,-144,-137,-81
22,180,158,-101,-68,169,-47,-128,-174,-133,-131,-79
26,177,151,-101,-62,164,-37,-113,-158,-122,-126,-76
31,176,145,-103,-57,161,-28,-99,-144,-113,-121,-74
34,178,144,-106,-55,161,-19,-86,-129,-102,-115,-69
37,181,144,-109,-53,163,-11,-73,-113,-91,-109,-65
40,186,146,-113,-53,166,-3,-61,-99,-81,-104,-62
42,192,150,-117,-54,171,2,-51,-86,-72,-98,-58
43,200,157,-121,-57,179,6,-44,-75,-64,-93,-54
44,207,163,-125,-59,185,9,-38,-65,-57,-88,-50
44,212,168,-128,-62,190,11,-33,-58,-52,-85,-48
43,215,172,-129,-64,194,12,-30,-54,-50,-83,-46
43,217,174,-130,-65,196,13,-28,-50,-47,-82,-45
43,218,175,-130,-66,197,13,-27,-48,-47,-82,-45
43,218,175,-130,-66,197,13,-26,-47,-46,-82,-45
43,218,175,-130,-66,197,14,-25,-47,-46,-82,-45
44,218,174,-131,-65,196,14,-24,-46,-45,-81,-45
45,218,173,-131,-64,196,15,-23,-46,-44,-81,-45
45,218,173,-131,-64,196,15,-22,-45,-43,-81,-44
45,218,173,-131,-64,196,16,-21,-45,-42,-81,-44
46,218,172,-132,-63,195,16,-21,-45,-43,-81,-45
46,218,172,-132,-63,195,17,-20,-43,-42,-81,-44
45,218,173,-131,-64,196,18,-18,-41,-40,-79,-43
46,218,172,-132,-63,195,18,-18,-40,-40,-80,-44
46,219,173,-132,-63,196,18,-17,-38,-38,-79,-44
46,220,174,-133,-64,197,18,-16,-36,-37,-78,-43
46,220,174,-133,-64,197,18,-16,-35,-36,-77,-42
46,220,174,-133,-64,197,18,-16,-33,-34,-77,-42
46,221,175,-133,-64,198,18,-16,-34,-34,-77,-42
46,222,176,-134,-65,199,18,-15,-33,-34,-76,-41
46,222,176,-134,-65,199,19,-14,-33,-33,-75,-41
47,222,175,-134,-64,199,19,-13,-32,-33,-75,-41
47,223,176,-135,-64,200,19,-12,-32,-33,-75,-41
47,223,176,-135,-64,200,20,-11,-31,-32,-75,-40
48,224,176,-136,-64,200,20,-10,-29,-31,-74,-40
48,224,176,-136,-64,200,20,-10,-27,-30,-74,-40
48,224,176,-136,-64,200,20,-9,-26,-29,-73,-40
49,225,176,-137,-63,201,19,-10,-25,-29,-73,-40
49,225,176,-137,-63,201,19,-11,-25,-29,-73,-40
48,226,178,-137,-65,202,19,-10,-24,-28,-72,-40
47,226,179,-136,-66,203,20,-10,-24,-28,-72,-40
47,227,180,-137,-66,204,20,-9,-23,-27,-71,-39
48,228,180,-138,-66,204,20,-9,-23,-27,-71,-39
48,228,180,-138,-66,204,21,-8,-22,-26,-71,-39
48,228,180,-138,-66,204,21,-7,-20,-25,-70,-38
49,228,179,-138,-65,204,21,-7,-19,-23,-69,-37
50,229,179,-139,-64,204,20,-7,-19,-22,-68,-36
50,229,179,-139,-64,204,20,-7,-17,-20,-67,-35
51,229,178,-140,-63,204,20,-6,-16,-19,-66,-35
51,230,179,-140,-64,205,20,-5,-15,-17,-65,-34
51,231,180,-141,-64,206,19,-5,-14,-17,-65,-34
51,231,180,-141,-64,206,20,-4,-13,-16,-65,-33
51,230,179,-140,-64,205,21,-2,-10,-14,-63,-32
51,231,180,-141,-64,206,20,-2,-9,-14,-64,-33
51,231,180,-141,-64,206,21,-1,-7,-13,-63,-33
