I,II,III,aVR,aVL,aVF,V1,V2,V3,V4,V5,V6
228,95,-133,-161,181,-19,24,40,67,17,64,-86
229,95,-134,-162,182,-19,23,39,66,16,63,-87
231,95,-136,-163,184,-20,23,39,66,15,64,-86
231,96,-135,-163,183,-19,23,39,65,14,63,-87
231,96,-135,-163,183,-19,23,39,65,14,63,-88
231,95,-136,-163,184,-20,24,41,66,15,63,-88
231,95,-136,-163,184,-20,23,41,66,14,63,-89
231,95,-136,-163,184,-20,23,41,67,14,62,-89
232,95,-137,-163,185,-21,22,40,66,13,61,-90
232,95,-137,-163,185,-21,22,39,67,14,61,-90
232,95,-137,-163,185,-21,22,39,66,14,61,-89
232,96,-136,-164,184,-20,23,40,66,15,61,-88
232,95,-137,-163,185,-21,23,39,66,15,62,-87
231,95,-136,-163,184,-20,24,40,67,16,63,-87
231,95,-136,-163,184,-20,24,41,66,15,63,-87
231,95,-136,-163,184,-20,24,41,66,14,62,-88
231,95,-136,-163,184,-20,23,41,66,13,62,-89
231,95,-136,-163,184,-20,23,42,67,14,62,-89
231,95,-136,-163,184,-20,23,41,68,14,62,-89
230,95,-135,-162,183,-20,23,41,69,15,61,-88
230,96,-134,-163,182,-19,22,41,69,15,61,-88
231,96,-135,-163,183,-19,21,40,68,15,61,-89
232,96,-136,-164,184,-20,21,40,69,15,62,-88
232,96,-136,-164,184,-20,22,41,69,15,62,-88
232,97,-135,-164,184,-19,22,41,69,15,61,-89
232,96,-136,-164,184,-20,22,41,69,14,61,-89
231,96,-135,-163,183,-19,22,40,68,13,60,-90
230,95,-135,-162,183,-20,22,41,68,14,60,-90
230,94,-136,-162,183,-21,22,40,67,14,60,-90
231,95,-136,-163,184,-20,22,40,66,14,60,-90
231,95,-136,-163,184,-20,22,40,65,14,60,-89
231,95,-136,-163,184,-20,22,41,65,14,60,-89
231,95,-136,-163,184,-20,22,41,67,15,61,-88
231,96,-135,-163,183,-19,21,41,68,14,60,-89
230,96,-134,-163,182,-19,22,42,71,16,61,-88
229,96,-133,-162,181,-18,23,42,71,16,61,-89
229,95,-134,-162,182,-19,22,42,71,15,60,-89
229,95,-134,-162,182,-19,21,41,71,15,59,-90
228,94,-134,-161,181,-20,22,41,72,15,59,-90
228,93,-135,-160,182,-21,22,40,72,15,59,-90
229,93,-136,-161,183,-21,23,41,73,15,60,-90
229,95,-134,-162,182,-19,22,40,72,14,59,-91
230,95,-135,-162,183,-20,23,40,71,14,59,-90
230,94,-136,-162,183,-21,23,40,70,14,59,-90
231,94,-137,-162,184,-21,23,41,69,14,60,-89
231,94,-137,-162,184,-21,23,42,68,14,60,-88
230,95,-135,-162,183,-20,23,42,67,13,60,-88
229,94,-135,-161,182,-20,23,42,68,14,60,-88
229,94,-135,-161,182,-20,22,41,69,14,60,-88
230,94,-136,-162,183,-21,21,40,68,13,61,-88
231,95,-136,-163,184,-20,21,40,67,14,62,-87
231,94,-137,-162,184,-21,21,41,67,15,62,-87
230,93,-137,-161,184,-22,21,41,68,17,62,-87
228,92,-136,-160,182,-22,22,42,69,17,62,-88
228,91,-137,-159,183,-23,22,42,70,16,62,-89
230,93,-137,-161,184,-22,21,41,71,15,61,-91
231,94,-137,-162,184,-21,22,41,72,15,60,-91
231,94,-137,-162,184,-21,23,41,71,15,59,-91
231,94,-137,-162,184,-21,21,40,70,14,59,-91
230,94,-136,-162,183,-21,20,38,69,13,58,-92
230,94,-136,-162,183,-21,20,38,68,13,58,-91
230,94,-136,-162,183,-21,21,38,67,12,59,-91
230,94,-136,-162,183,-21,21,38,66,12,59,-90
230,94,-136,-162,183,-21,21,38,66,11,59,-90
230,93,-137,-161,184,-22,21,39,67,11,60,-90
229,93,-136,-161,183,-21,21,39,66,10,59,-91
228,93,-135,-160,182,-21,20,39,64,9,58,-92
228,93,-135,-160,182,-21,20,38,64,9,58,-92
229,94,-135,-161,182,-20,20,38,64,10,58,-92
229,94,-135,-161,182,-20,19,38,64,10,57,-91
229,95,-134,-162,182,-19,18,36,64,9,56,-92
229,95,-134,-162,182,-19,19,36,64,9,57,-91
229,95,-134,-162,182,-19,19,36,64,9,57,-91
230,93,-137,-161,184,-22,21,37,65,10,58,-90
230,92,-138,-161,184,-23,21,37,63,9,56,-90
230,92,-138,-161,184,-23,21,36,62,8,55,-91
230,92,-138,-161,184,-23,20,36,61,7,54,-92
229,92,-137,-160,183,-22,20,36,61,6,54,-93
230,92,-138,-161,184,-23,20,35,62,6,54,-94
231,92,-139,-161,185,-23,20,35,61,6,54,-94
230,93,-137,-161,184,-22,20,35,60,6,54,-94
230,93,-137,-161,184,-22,20,34,59,5,54,-94
229,93,-136,-161,183,-21,19,34,58,5,54,-94
228,92,-136,-160,182,-22,20,34,59,6,55,-93
228,91,-137,-159,183,-23,20,34,58,5,54,-94
228,91,-137,-159,183,-23,20,34,58,5,54,-94
229,93,-136,-161,183,-21,19,34,58,4,52,-94
229,93,-136,-161,183,-21,19,34,58,4,52,-94
229,93,-136,-161,183,-21,20,33,58,3,52,-94
229,93,-136,-161,183,-21,20,33,58,3,52,-93
229,93,-136,-161,183,-21,20,34,58,3,52,-93
229,94,-135,-161,182,-20,21,34,57,3,53,-92
229,93,-136,-161,183,-21,21,34,56,3,53,-93
228,93,-135,-160,182,-21,21,33,56,1,52,-94
228,92,-136,-160,182,-22,21,33,57,1,52,-95
228,93,-135,-160,182,-21,20,33,56,0,50,-97
228,93,-135,-160,182,-21,20,33,57,0,49,-97
228,92,-136,-160,182,-22,21,34,58,1,50,-96
228,92,-136,-160,182,-22,21,33,58,0,49,-96
228,92,-136,-160,182,-22,21,32,57,0,49,-95
229,92,-137,-160,183,-22,20,31,54,-1,48,-96
228,93,-135,-160,182,-21,20,30,52,-1,49,-96
227,93,-134,-160,181,-20,21,31,52,0,50,-95
228,93,-135,-160,182,-21,20,30,52,-1,49,-95
228,93,-135,-160,182,-21,20,31,53,-1,49,-96
228,93,-135,-160,182,-21,20,30,54,-1,49,-96
228,92,-136,-160,182,-22,21,31,54,-1,49,-96
228,92,-136,-160,182,-22,21,31,55,-1,48,-96
228,92,-136,-160,182,-22,21,31,55,-1,49,-96
228,92,-136,-160,182,-22,20,31,55,-1,49,-97
228,92,-136,-160,182,-22,20,31,55,-1,49,-97
227,92,-135,-159,181,-21,19,31,54,-1,48,-97
227,91,-136,-159,182,-22,19,31,53,-1,48,-96
227,90,-137,-158,182,-23,20,32,53,0,49,-95
227,90,-137,-158,182,-23,21,32,53,-1,49,-95
227,90,-137,-158,182,-23,20,32,53,-1,49,-95
226,91,-135,-158,181,-22,20,33,54,-1,49,-96
226,91,-135,-158,181,-22,21,33,54,-1,49,-97
226,90,-136,-158,181,-23,21,32,55,0,48,-97
226,90,-136,-158,181,-23,21,32,55,1,48,-97
225,89,-136,-157,181,-23,22,32,56,2,49,-96
225,89,-136,-157,181,-23,21,32,56,2,48,-97
225,89,-136,-157,181,-23,21,31,56,2,49,-96
225,90,-135,-157,180,-22,21,30,55,1,48,-96
225,90,-135,-157,180,-22,21,30,55,0,47,-97
225,90,-135,-157,180,-22,21,31,54,-1,47,-97
225,90,-135,-157,180,-22,21,31,54,-3,47,-97
224,90,-134,-157,179,-22,21,31,54,-3,48,-98
224,90,-134,-157,179,-22,21,30,54,-2,47,-98
225,90,-135,-157,180,-22,20,29,52,-2,45,-99
225,90,-135,-157,180,-22,20,30,52,-1,46,-100
224,91,-133,-157,179,-21,21,30,53,-1,47,-100
225,90,-135,-157,180,-22,21,31,53,-1,48,-99
226,90,-136,-158,181,-23,22,32,52,-1,47,-99
226,89,-137,-157,182,-24,22,32,51,-1,47,-99
226,89,-137,-157,182,-24,22,32,50,-2,46,-99
227,89,-138,-158,183,-24,21,32,50,-2,46,-98
228,90,-138,-159,183,-24,21,31,50,-2,46,-99
228,90,-138,-159,183,-24,21,31,51,-2,46,-98
226,89,-137,-157,182,-24,21,31,51,-2,46,-98
224,87,-137,-155,181,-25,21,31,54,-2,47,-97
224,87,-137,-155,181,-25,22,31,55,-2,47,-97
225,88,-137,-156,181,-24,22,30,54,-1,47,-97
225,89,-136,-157,181,-23,22,31,53,-1,47,-97
225,88,-137,-156,181,-24,21,31,51,-2,46,-98
224,88,-136,-156,180,-24,21,31,50,-3,45,-100
224,89,-135,-156,180,-23,21,31,50,-4,45,-99
224,89,-135,-156,180,-23,22,31,51,-4,46,-98
224,89,-135,-156,180,-23,22,30,52,-4,46,-98
225,89,-136,-157,181,-23,22,30,53,-3,46,-98
226,90,-136,-158,181,-23,21,30,52,-3,46,-100
226,89,-137,-157,182,-24,22,30,52,-2,45,-100
226,88,-138,-157,182,-25,23,30,53,-1,46,-99
225,87,-138,-156,182,-25,23,30,54,-1,46,-99
226,89,-137,-157,182,-24,22,30,53,-2,45,-99
226,90,-136,-158,181,-23,22,32,54,-2,45,-98
226,90,-136,-158,181,-23,22,32,53,-3,45,-98
225,89,-136,-157,181,-23,23,31,54,-3,45,-98
225,89,-136,-157,181,-23,22,30,52,-4,44,-99
225,88,-137,-156,181,-24,22,29,51,-4,44,-100
225,88,-137,-156,181,-24,21,29,50,-5,44,-100
225,88,-137,-156,181,-24,21,28,50,-5,44,-99
225,88,-137,-156,181,-24,21,28,51,-4,43,-99
225,88,-137,-156,181,-24,21,29,51,-4,44,-99
225,89,-136,-157,181,-23,21,30,51,-3,44,-100
225,89,-136,-157,181,-23,21,30,51,-4,44,-100
225,89,-136,-157,181,-23,21,30,51,-4,44,-100
225,90,-135,-157,180,-22,20,28,50,-6,43,-101
226,90,-136,-158,181,-23,21,28,51,-6,43,-101
227,90,-137,-158,182,-23,21,28,52,-5,44,-100
227,90,-137,-158,182,-23,22,29,53,-4,45,-99
227,90,-137,-158,182,-23,22,29,52,-4,45,-99
227,89,-138,-158,183,-24,22,29,51,-4,45,-99
227,89,-138,-158,183,-24,22,29,50,-3,44,-100
226,89,-137,-157,182,-24,22,29,49,-3,44,-100
226,88,-138,-157,182,-25,24,30,49,-2,44,-100
225,88,-137,-156,181,-24,24,31,51,-3,44,-100
226,88,-138,-157,182,-25,24,30,53,-4,43,-100
226,88,-138,-157,182,-25,24,30,54,-4,43,-100
225,88,-137,-156,181,-24,24,30,54,-3,44,-100
226,89,-137,-157,182,-24,23,29,53,-4,43,-100
226,89,-137,-157,182,-24,22,29,50,-5,43,-100
226,89,-137,-157,182,-24,21,28,47,-6,43,-100
226,89,-137,-157,182,-24,21,27,45,-6,42,-100
226,89,-137,-157,182,-24,22,27,47,-6,42,-101
226,89,-137,-157,182,-24,22,28,49,-6,42,-101
225,89,-136,-157,181,-23,23,29,52,-5,42,-100
225,89,-136,-157,181,-23,23,30,51,-5,42,-101
225,89,-136,-157,181,-23,23,30,51,-5,42,-101
225,88,-137,-156,181,-24,23,29,51,-6,42,-101
225,87,-138,-156,182,-25,22,29,52,-6,42,-100
224,87,-137,-155,181,-25,23,30,52,-6,43,-99
224,88,-136,-156,180,-24,23,29,50,-7,43,-99
225,89,-136,-157,181,-23,24,30,50,-5,44,-98
226,89,-137,-157,182,-24,24,30,50,-5,43,-99
227,90,-137,-158,182,-23,24,31,52,-5,43,-99
226,89,-137,-157,182,-24,24,30,53,-5,43,-99
225,89,-136,-157,181,-23,24,30,54,-5,42,-99
225,88,-137,-156,181,-24,23,28,53,-6,41,-100
225,88,-137,-156,181,-24,23,28,53,-6,42,-100
226,89,-137,-157,182,-24,22,27,50,-6,42,-100
227,89,-138,-158,183,-24,22,27,49,-6,43,-99
227,89,-138,-158,183,-24,22,27,48,-6,43,-99
226,88,-138,-157,182,-25,23,28,49,-6,43,-100
224,88,-136,-156,180,-24,23,28,49,-7,41,-102
224,88,-136,-156,180,-24,23,28,49,-8,41,-102
226,89,-137,-157,182,-24,22,28,49,-8,40,-103
227,89,-138,-158,183,-24,22,28,50,-8,40,-102
227,89,-138,-158,183,-24,22,28,50,-8,40,-102
226,88,-138,-157,182,-25,23,28,49,-7,41,-101
224,88,-136,-156,180,-24,22,28,48,-8,41,-101
224,88,-136,-156,180,-24,23,28,48,-8,41,-101
224,88,-136,-156,180,-24,24,28,49,-7,41,-101
225,88,-137,-156,181,-24,23,28,50,-8,41,-101
224,87,-137,-155,181,-25,24,29,51,-7,41,-100
224,87,-137,-155,181,-25,24,29,50,-6,41,-101
225,88,-137,-156,181,-24,23,29,47,-6,41,-102
226,89,-137,-157,182,-24,23,28,45,-7,40,-103
226,89,-137,-157,182,-24,23,28,45,-8,40,-102
226,88,-138,-157,182,-25,24,28,47,-7,41,-100
226,88,-138,-157,182,-25,24,28,49,-7,40,-100
226,89,-137,-157,182,-24,23,27,48,-7,39,-102
227,89,-138,-158,183,-24,24,28,49,-7,40,-102
227,89,-138,-158,183,-24,23,28,49,-7,41,-101
227,90,-137,-158,182,-23,23,29,49,-6,41,-100
226,90,-136,-158,181,-23,23,29,49,-6,41,-101
226,89,-137,-157,182,-24,23,29,49,-7,40,-102
225,89,-136,-157,181,-23,24,29,49,-7,40,-102
225,89,-136,-157,181,-23,23,29,49,-8,41,-102
226,89,-137,-157,182,-24,24,28,49,-7,40,-102
226,89,-137,-157,182,-24,24,28,49,-7,40,-102
225,89,-136,-157,181,-23,25,28,47,-6,41,-102
225,89,-136,-157,181,-23,24,28,45,-7,41,-102
226,89,-137,-157,182,-24,23,28,44,-9,39,-103
226,88,-138,-157,182,-25,24,29,45,-8,40,-101
225,87,-138,-156,182,-25,24,29,45,-8,39,-102
225,87,-138,-156,182,-25,23,29,46,-9,39,-103
225,88,-137,-156,181,-24,23,29,47,-9,39,-103
226,88,-138,-157,182,-25,23,29,49,-9,39,-103
226,89,-137,-157,182,-24,23,27,49,-9,39,-104
225,89,-136,-157,181,-23,23,27,51,-8,40,-103
224,89,-135,-156,180,-23,23,27,51,-9,39,-103
223,89,-134,-156,179,-22,22,27,50,-10,39,-103
223,88,-135,-155,179,-23,23,29,49,-10,39,-102
223,87,-136,-155,180,-24,23,29,47,-9,39,-102
224,87,-137,-155,181,-25,23,29,44,-9,39,-103
224,87,-137,-155,181,-25,23,29,43,-10,39,-103
224,88,-136,-156,180,-24,22,28,42,-11,38,-104
225,88,-137,-156,181,-24,22,28,44,-10,38,-103
226,88,-138,-157,182,-25,22,28,47,-9,39,-103
226,88,-138,-157,182,-25,22,29,49,-7,39,-104
226,88,-138,-157,182,-25,22,29,47,-7,39,-104
225,88,-137,-156,181,-24,23,28,48,-6,39,-104
225,89,-136,-157,181,-23,23,28,50,-6,39,-104
224,88,-136,-156,180,-24,23,28,49,-7,39,-104
223,88,-135,-155,179,-23,23,28,48,-7,39,-104
223,87,-136,-155,180,-24,22,27,49,-9,38,-104
223,87,-136,-155,180,-24,23,27,50,-10,38,-104
224,88,-136,-156,180,-24,22,26,49,-11,37,-104
224,88,-136,-156,180,-24,21,26,48,-11,37,-104
225,89,-136,-157,181,-23,21,26,47,-11,38,-104
225,89,-136,-157,181,-23,22,26,47,-10,39,-103
224,90,-134,-157,179,-22,21,27,47,-9,39,-103
224,90,-134,-157,179,-22,21,27,46,-9,39,-103
224,90,-134,-157,179,-22,21,27,46,-9,39,-104
224,89,-135,-156,180,-23,22,28,46,-8,39,-104
224,89,-135,-156,180,-23,22,28,46,-9,39,-104
224,89,-135,-156,180,-23,22,29,47,-9,38,-104
225,89,-136,-157,181,-23,22,29,48,-9,39,-104
225,90,-135,-157,180,-22,21,28,48,-9,38,-104
225,90,-135,-157,180,-22,21,28,48,-10,38,-105
225,90,-135,-157,180,-22,21,27,47,-10,37,-105
225,90,-135,-157,180,-22,21,27,47,-10,37,-105
224,91,-133,-157,179,-21,21,28,47,-10,37,-104
224,91,-133,-157,179,-21,22,28,47,-11,37,-104
224,91,-133,-157,179,-21,22,28,47,-11,37,-105
225,90,-135,-157,180,-22,22,28,47,-10,36,-105
224,89,-135,-156,180,-23,23,29,47,-9,36,-105
224,90,-134,-157,179,-22,23,29,47,-8,37,-104
225,91,-134,-158,180,-21,22,28,47,-9,37,-105
225,90,-135,-157,180,-22,22,28,46,-9,37,-105
224,89,-135,-156,180,-23,22,29,46,-9,38,-104
223,88,-135,-155,179,-23,23,29,46,-9,39,-103
223,88,-135,-155,179,-23,24,29,46,-10,39,-102
224,90,-134,-157,179,-22,23,29,44,-10,39,-103
224,91,-133,-157,179,-21,22,28,44,-10,38,-104
224,91,-133,-157,179,-21,21,28,45,-11,37,-105
224,90,-134,-157,179,-22,22,29,47,-11,37,-104
224,90,-134,-157,179,-22,22,28,47,-11,37,-105
224,89,-135,-156,180,-23,22,27,46,-11,36,-105
223,89,-134,-156,179,-22,21,26,45,-11,36,-105
223,89,-134,-156,179,-22,21,27,46,-11,36,-105
223,89,-134,-156,179,-22,22,27,47,-9,37,-105
223,88,-135,-155,179,-23,22,28,48,-9,38,-103
223,88,-135,-155,179,-23,22,28,47,-10,37,-103
223,89,-134,-156,179,-22,20,27,47,-11,36,-104
224,89,-135,-156,180,-23,20,27,47,-11,36,-105
224,90,-134,-157,179,-22,21,28,48,-10,36,-105
224,89,-135,-156,180,-23,21,28,48,-10,36,-104
224,89,-135,-156,180,-23,21,28,47,-11,36,-104
223,89,-134,-156,179,-22,22,28,46,-11,36,-104
"
		223","
		89","
		-134","
		-156","
		179","
		-22","
		22","
		26","
		45","
		-11","
		36","
		-104"
223,89,-134,-156,179,-22,22,25,45,-11,35,-104
223,89,-134,-156,179,-22,22,26,44,-11,35,-104
222,89,-133,-155,178,-22,23,27,45,-11,36,-105
221,88,-133,-154,177,-22,24,28,46,-11,36,-106
221,88,-133,-154,177,-22,24,28,46,-12,37,-107
222,89,-133,-155,178,-22,24,28,47,-11,37,-107
222,89,-133,-155,178,-22,25,28,47,-11,37,-106
222,88,-134,-155,178,-23,24,27,47,-10,37,-105
222,87,-135,-154,179,-24,24,27,46,-10,37,-104
222,88,-134,-155,178,-23,24,27,45,-9,37,-104
222,89,-133,-155,178,-22,25,28,46,-9,38,-103
223,90,-133,-156,178,-21,25,28,47,-9,37,-104
223,90,-133,-156,178,-21,25,28,49,-9,37,-104
223,90,-133,-156,178,-21,24,28,49,-10,37,-104
222,89,-133,-155,178,-22,24,28,49,-11,37,-104
221,88,-133,-154,177,-22,24,27,47,-13,36,-105
220,87,-133,-153,177,-23,25,27,45,-11,35,-105
220,87,-133,-153,177,-23,25,26,42,-11,35,-105
220,88,-132,-154,176,-22,25,26,39,-11,35,-105
221,89,-132,-155,177,-21,24,26,37,-12,35,-106
220,89,-131,-154,176,-21,23,26,40,-11,35,-106
220,88,-132,-154,176,-22,24,27,44,-10,36,-105
221,89,-132,-155,177,-21,23,27,45,-11,35,-105
222,89,-133,-155,178,-22,23,27,46,-11,35,-105
221,89,-132,-155,177,-21,23,27,46,-11,35,-105
220,88,-132,-154,176,-22,24,28,48,-11,36,-104
221,88,-133,-154,177,-22,24,27,47,-12,35,-105
222,88,-134,-155,178,-23,24,27,47,-11,35,-105
222,88,-134,-155,178,-23,23,27,46,-12,35,-106
221,88,-133,-154,177,-22,23,26,45,-12,35,-108
221,88,-133,-154,177,-22,23,26,44,-12,34,-108
222,88,-134,-155,178,-23,23,26,45,-12,34,-109
222,88,-134,-155,178,-23,23,27,46,-11,34,-108
221,88,-133,-154,177,-22,24,27,46,-11,34,-108
221,88,-133,-154,177,-22,24,27,46,-10,34,-107
222,89,-133,-155,178,-22,24,27,46,-11,34,-106
221,89,-132,-155,177,-21,24,27,46,-11,34,-106
221,89,-132,-155,177,-21,24,26,45,-12,35,-107
222,89,-133,-155,178,-22,24,26,45,-12,34,-107
223,89,-134,-156,179,-22,23,25,44,-13,33,-107
223,89,-134,-156,179,-22,22,25,43,-14,32,-107
222,88,-134,-155,178,-23,22,25,43,-14,33,-106
222,88,-134,-155,178,-23,22,25,41,-15,33,-106
222,89,-133,-155,178,-22,22,25,40,-14,33,-107
222,90,-132,-156,177,-21,22,24,39,-15,33,-108
222,89,-133,-155,178,-22,22,25,41,-13,34,-108
222,88,-134,-155,178,-23,21,25,43,-13,34,-108
222,89,-133,-155,178,-22,21,25,43,-13,34,-108
222,89,-133,-155,178,-22,22,25,44,-13,35,-107
221,89,-132,-155,177,-21,21,25,44,-13,35,-107
221,89,-132,-155,177,-21,20,25,44,-13,35,-108
221,88,-133,-154,177,-22,21,25,44,-13,34,-108
220,87,-133,-153,177,-23,22,26,44,-12,34,-107
220,86,-134,-153,177,-24,21,26,44,-13,33,-108
221,84,-137,-152,179,-26,21,27,44,-13,34,-109
222,84,-138,-153,180,-27,20,26,44,-14,33,-110
223,84,-139,-153,181,-27,22,28,45,-12,33,-109
224,84,-140,-154,182,-28,24,30,47,-10,34,-108
225,85,-140,-155,183,-27,24,31,47,-10,34,-108
225,86,-139,-155,182,-26,25,32,47,-9,35,-108
227,87,-140,-157,184,-26,26,33,46,-8,34,-109
228,87,-141,-157,185,-27,27,33,46,-8,34,-109
229,87,-142,-158,186,-27,28,34,47,-7,35,-108
229,86,-143,-157,186,-28,28,34,48,-7,36,-107
229,85,-144,-157,187,-29,29,36,50,-7,36,-106
229,85,-144,-157,187,-29,28,36,52,-8,36,-106
229,86,-143,-157,186,-28,27,36,52,-7,37,-106
229,88,-141,-158,185,-26,27,35,52,-6,38,-105
229,89,-140,-159,185,-25,26,33,50,-6,37,-106
229,88,-141,-158,185,-26,26,33,50,-6,36,-106
228,87,-141,-157,185,-27,24,32,49,-7,36,-106
228,87,-141,-157,185,-27,24,32,48,-8,36,-107
228,87,-141,-157,185,-27,25,34,48,-9,35,-108
227,86,-141,-156,184,-27,28,36,49,-8,35,-107
227,85,-142,-156,185,-28,28,36,50,-9,34,-108
226,86,-140,-156,183,-27,28,36,50,-10,34,-108
227,86,-141,-156,184,-27,28,35,50,-11,33,-108
228,87,-141,-157,185,-27,27,33,48,-12,32,-109
228,88,-140,-158,184,-26,27,32,46,-12,32,-109
227,88,-139,-157,183,-25,26,31,44,-12,32,-109
227,88,-139,-157,183,-25,25,30,41,-13,32,-109
227,87,-140,-157,184,-26,23,29,42,-12,33,-108
228,87,-141,-157,185,-27,20,27,41,-13,32,-109
229,86,-143,-157,186,-28,17,24,40,-13,31,-110
228,85,-143,-156,186,-29,16,23,39,-13,32,-109
228,85,-143,-156,186,-29,17,23,39,-13,32,-109
228,85,-143,-156,186,-29,18,24,40,-12,32,-108
228,85,-143,-156,186,-29,18,24,40,-13,32,-109
228,84,-144,-156,186,-30,18,24,39,-14,32,-109
228,85,-143,-156,186,-29,19,24,39,-14,32,-109
229,85,-144,-157,187,-29,19,24,40,-13,33,-109
229,85,-144,-157,187,-29,19,24,41,-13,33,-108
229,85,-144,-157,187,-29,20,25,41,-13,34,-107
229,85,-144,-157,187,-29,20,25,41,-12,34,-107
229,86,-143,-157,186,-28,19,25,39,-13,33,-108
228,86,-142,-157,185,-28,20,26,41,-12,34,-108
228,86,-142,-157,185,-28,20,26,41,-12,34,-108
227,85,-142,-156,185,-28,19,25,39,-14,33,-109
226,83,-143,-154,185,-30,19,24,38,-14,32,-109
225,83,-142,-154,184,-29,19,24,38,-14,33,-109
224,84,-140,-154,182,-28,19,23,37,-16,32,-109
222,84,-138,-153,180,-27,19,23,36,-17,31,-110
221,83,-138,-152,180,-27,20,23,36,-17,31,-110
220,83,-137,-151,179,-27,21,22,36,-17,30,-110
218,84,-134,-151,176,-25,23,24,37,-16,31,-110
217,84,-133,-150,175,-24,24,24,39,-15,31,-111
217,84,-133,-150,175,-24,23,24,40,-15,30,-111
217,84,-133,-150,175,-24,23,23,40,-15,30,-110
217,84,-133,-150,175,-24,22,22,38,-15,30,-110
216,84,-132,-150,174,-24,21,21,36,-16,29,-111
215,83,-132,-149,174,-24,20,21,35,-16,28,-112
215,82,-133,-148,174,-25,20,22,35,-17,28,-113
216,83,-133,-149,175,-25,21,22,35,-16,28,-112
216,83,-133,-149,175,-25,22,22,36,-15,29,-111
216,83,-133,-149,175,-25,21,21,36,-16,29,-112
216,83,-133,-149,175,-25,21,21,37,-18,29,-113
216,83,-133,-149,175,-25,21,21,38,-18,29,-113
217,83,-134,-150,176,-25,20,21,37,-18,28,-114
217,83,-134,-150,176,-25,20,21,37,-18,28,-114
217,83,-134,-150,176,-25,21,21,37,-18,28,-114
218,84,-134,-151,176,-25,22,22,37,-17,28,-113
218,85,-133,-151,176,-24,21,21,35,-17,28,-113
217,86,-131,-151,174,-22,21,21,34,-17,28,-113
216,86,-130,-151,173,-22,21,21,35,-17,29,-113
216,85,-131,-150,174,-23,21,21,34,-18,28,-114
216,85,-131,-150,174,-23,20,21,35,-18,27,-114
215,84,-131,-149,173,-23,21,21,36,-17,28,-113
214,83,-131,-148,173,-24,21,21,36,-17,28,-113
215,83,-132,-149,174,-24,21,21,36,-17,28,-113
215,82,-133,-148,174,-25,21,21,37,-17,28,-113
215,82,-133,-148,174,-25,20,21,37,-16,28,-114
214,83,-131,-148,173,-24,21,21,38,-16,27,-114
214,83,-131,-148,173,-24,21,22,38,-17,27,-115
214,82,-132,-148,173,-25,23,24,39,-18,28,-114
214,82,-132,-148,173,-25,24,24,40,-17,29,-114
215,82,-133,-148,174,-25,24,24,41,-18,27,-116
214,81,-133,-147,174,-26,26,28,44,-17,27,-117
213,80,-133,-146,173,-26,28,32,47,-17,26,-118
213,78,-135,-145,174,-28,31,35,51,-15,24,-120
214,78,-136,-146,175,-29,34,40,55,-13,23,-121
214,78,-136,-146,175,-29,37,45,59,-10,23,-121
214,79,-135,-146,175,-28,40,49,66,-4,24,-120
214,81,-133,-147,174,-26,39,49,72,5,28,-118
215,84,-131,-149,173,-23,38,49,78,15,34,-115
220,87,-133,-153,177,-23,37,52,83,24,40,-113
226,89,-137,-157,182,-24,38,58,92,36,48,-109
232,91,-141,-161,187,-25,42,70,106,50,59,-104
238,95,-143,-166,191,-24,48,84,122,67,70,-98
243,103,-140,-173,192,-18,56,101,145,91,86,-88
249,115,-134,-182,192,-9,58,112,169,122,107,-75
257,131,-126,-194,192,3,52,110,185,155,133,-58
267,152,-115,-209,191,19,35,92,190,190,165,-35
279,180,-99,-229,189,41,7,60,182,228,201,-8
292,213,-79,-252,186,67,-29,17,168,274,244,22
303,246,-57,-274,180,95,-69,-30,147,323,289,54
313,274,-39,-293,176,118,-105,-77,121,372,332,84
318,293,-25,-305,172,134,-133,-121,99,417,364,105
317,302,-15,-309,166,144,-152,-162,86,456,386,116
305,301,-4,-303,155,149,-159,-193,77,485,395,118
283,294,11,-288,136,153,-156,-212,60,491,389,113
260,278,18,-269,121,148,-151,-228,30,462,364,99
240,251,11,-245,115,131,-145,-239,-14,383,317,73
222,216,-6,-219,114,105,-136,-236,-65,258,247,36
202,181,-21,-191,112,80,-116,-215,-106,125,172,-5
178,149,-29,-163,104,60,-93,-191,-135,13,102,-44
157,122,-35,-139,96,44,-72,-169,-152,-69,45,-79
149,103,-46,-126,98,29,-64,-155,-158,-112,8,-104
152,93,-59,-122,106,17,-66,-149,-158,-123,-10,-119
157,85,-72,-121,115,7,-72,-145,-156,-122,-17,-128
163,77,-86,-120,125,-4,-76,-137,-148,-118,-19,-132
173,75,-98,-124,136,-11,-77,-124,-133,-107,-15,-131
183,74,-109,-128,146,-17,-74,-109,-114,-92,-9,-130
191,70,-121,-130,156,-25,-64,-90,-94,-81,-5,-131
196,64,-132,-130,164,-34,-50,-68,-73,-69,0,-131
199,61,-138,-130,169,-38,-38,-48,-55,-59,4,-131
203,59,-144,-131,174,-42,-25,-33,-38,-51,7,-130
207,60,-147,-133,177,-43,-12,-16,-19,-42,11,-128
211,63,-148,-137,180,-42,2,1,2,-31,17,-124
214,68,-146,-141,180,-39,10,13,19,-21,23,-120
216,74,-142,-145,179,-34,18,24,35,-11,29,-115
217,82,-135,-149,176,-26,23,33,47,-3,35,-111
219,88,-131,-153,175,-21,28,40,56,5,40,-108
219,94,-125,-156,172,-15,29,44,62,9,43,-105
218,98,-120,-158,169,-11,30,45,68,14,46,-104
218,102,-116,-160,167,-7,30,45,71,16,47,-103
217,103,-114,-160,166,-5,30,47,74,16,47,-103
217,102,-115,-159,166,-6,30,48,75,14,45,-105
217,100,-117,-158,167,-8,31,49,76,13,45,-105
217,99,-118,-158,168,-9,31,48,77,12,45,-105
217,98,-119,-157,168,-10,32,48,77,12,44,-105
216,97,-119,-156,168,-11,33,49,78,14,45,-104
216,97,-119,-156,168,-11,33,49,79,15,45,-104
216,98,-118,-157,167,-10,34,51,81,16,46,-104
216,99,-117,-157,167,-9,34,53,81,15,46,-105
216,100,-116,-158,166,-8,35,54,82,15,46,-105
217,99,-118,-158,168,-9,35,56,84,15,45,-106
217,99,-118,-158,168,-9,35,56,85,16,45,-106
218,99,-119,-158,169,-10,35,56,86,16,44,-106
218,99,-119,-158,169,-10,35,55,87,17,45,-105
217,99,-118,-158,168,-9,35,55,88,18,46,-105
217,99,-118,-158,168,-9,36,56,88,20,47,-103
217,100,-117,-158,167,-8,37,57,89,22,48,-102
217,100,-117,-158,167,-8,37,58,88,22,49,-102
217,100,-117,-158,167,-8,38,59,88,22,49,-102
218,101,-117,-159,168,-8,38,59,88,21,48,-103
218,102,-116,-160,167,-7,38,61,90,21,49,-103
219,102,-117,-160,168,-7,37,60,91,21,49,-104
220,102,-118,-161,169,-8,37,60,93,22,49,-104
220,102,-118,-161,169,-8,37,59,94,24,49,-104
220,102,-118,-161,169,-8,37,58,95,25,50,-104
220,102,-118,-161,169,-8,37,59,95,27,51,-103
220,102,-118,-161,169,-8,38,60,96,28,52,-103
220,103,-117,-161,169,-7,38,62,96,29,53,-102
220,104,-116,-162,168,-6,38,63,95,28,53,-102
221,105,-116,-163,169,-5,39,65,96,29,53,-101
221,105,-116,-163,169,-5,39,66,98,30,53,-100
221,105,-116,-163,169,-5,39,65,100,30,53,-101
220,103,-117,-161,169,-7,38,64,101,31,54,-102
220,102,-118,-161,169,-8,38,64,102,31,53,-102
220,103,-117,-161,169,-7,38,64,103,33,54,-101
221,104,-117,-162,169,-6,38,64,103,35,54,-100
222,104,-118,-163,170,-7,39,65,104,37,56,-99
222,106,-116,-164,169,-5,40,66,104,37,57,-98
222,107,-115,-164,169,-4,40,68,104,39,58,-97
222,108,-114,-165,168,-3,39,68,104,38,58,-98
223,108,-115,-165,169,-3,39,68,105,37,58,-98
223,108,-115,-165,169,-3,39,68,106,37,58,-98
223,108,-115,-165,169,-3,39,68,108,38,59,-98
223,108,-115,-165,169,-3,39,68,109,40,60,-98
224,108,-116,-166,170,-4,39,68,110,42,60,-97
225,109,-116,-167,171,-3,40,68,110,44,60,-96
226,110,-116,-168,171,-3,40,68,110,45,61,-96
226,111,-115,-168,171,-2,41,70,111,46,63,-95
225,110,-115,-167,170,-2,41,71,113,47,64,-95
225,110,-115,-167,170,-2,41,72,115,48,64,-95
225,111,-114,-168,170,-1,40,72,116,48,63,-97
226,112,-114,-169,170,-1,40,73,118,49,63,-97
227,112,-115,-169,171,-1,39,73,118,49,63,-96
227,113,-114,-170,171,0,39,74,120,51,65,-95
227,113,-114,-170,171,0,40,74,121,53,66,-93
227,114,-113,-170,170,1,40,75,122,56,68,-92
227,114,-113,-170,170,1,40,76,122,57,69,-91
227,114,-113,-170,170,1,41,77,123,58,70,-90
227,115,-112,-171,170,2,40,78,124,58,69,-90
227,116,-111,-171,169,3,40,80,126,60,70,-90
228,117,-111,-172,170,3,40,80,127,60,70,-91
229,117,-112,-173,171,3,39,81,129,62,72,-91
230,118,-112,-174,171,3,38,80,130,62,72,-91
230,118,-112,-174,171,3,39,81,132,63,73,-89
231,119,-112,-175,172,4,39,82,133,65,75,-88
231,120,-111,-175,171,5,39,83,133,66,76,-88
232,121,-111,-176,172,5,39,84,134,68,77,-87
232,122,-110,-177,171,6,39,84,134,70,78,-86
232,123,-109,-177,171,7,40,86,135,71,80,-85
232,123,-109,-177,171,7,40,88,136,73,82,-84
232,122,-110,-177,171,6,41,90,140,75,83,-84
233,122,-111,-177,172,6,41,93,144,78,85,-83
234,123,-111,-178,173,6,41,93,146,80,85,-82
235,124,-111,-179,173,7,41,94,148,82,86,-81
235,125,-110,-180,173,8,40,94,148,83,86,-81
236,126,-110,-181,173,8,40,95,149,85,88,-81
237,127,-110,-182,174,9,40,96,149,87,90,-80
238,129,-109,-183,174,10,40,98,150,89,91,-78
239,132,-107,-185,173,13,41,100,152,90,93,-77
240,133,-107,-186,174,13,41,102,153,92,94,-76
239,133,-106,-186,173,14,41,103,156,93,96,-75
239,133,-106,-186,173,14,40,103,158,94,96,-74
239,132,-107,-185,173,13,41,106,162,98,98,-72
239,134,-105,-186,172,15,40,107,164,101,99,-72
240,135,-105,-187,173,15,40,108,166,104,101,-72
241,136,-105,-188,173,16,41,110,168,108,104,-71
243,139,-104,-191,174,18,40,111,169,110,106,-69
244,142,-102,-193,173,20,41,113,170,113,109,-66
245,144,-101,-194,173,22,40,114,170,115,112,-64
245,145,-100,-195,173,23,40,116,171,117,114,-63
246,147,-99,-196,173,24,39,117,174,119,115,-62
247,148,-99,-197,173,25,40,120,179,122,118,-60
248,149,-99,-198,174,25,39,120,182,125,120,-59
248,151,-97,-199,173,27,38,121,185,129,122,-57
249,153,-96,-201,173,29,38,122,186,133,125,-55
250,155,-95,-202,173,30,38,124,187,136,128,-53
252,157,-95,-204,174,31,39,125,188,140,131,-52
253,159,-94,-206,174,33,38,127,190,144,133,-50
254,161,-93,-207,174,34,38,128,192,147,136,-49
254,163,-91,-208,173,36,38,130,194,150,138,-47
255,165,-90,-210,173,38,37,131,197,153,141,-45
256,166,-90,-211,173,38,38,133,200,157,144,-43
257,167,-90,-212,174,39,37,133,203,160,146,-42
258,169,-89,-213,174,40,35,133,205,163,148,-40
259,171,-88,-215,174,42,35,134,206,166,151,-39
259,173,-86,-216,173,44,34,134,206,169,153,-37
260,175,-85,-217,173,45,34,135,206,171,156,-35
261,177,-84,-219,173,47,33,135,208,173,158,-33
262,179,-83,-220,173,48,32,136,209,175,160,-32
263,180,-83,-221,173,49,33,137,211,178,163,-30
263,181,-82,-222,173,50,32,137,211,180,164,-29
264,182,-82,-223,173,50,32,138,213,183,166,-27
265,184,-81,-224,173,52,31,138,213,186,167,-26
265,185,-80,-225,173,53,31,138,213,188,169,-24
"
		266","
		186","
		-80","
		-226","
		173","
		53","
		30","
		137","
		213","
		191","
		171","
		-23"
266,187,-79,-226,173,54,29,136,212,192,172,-22
266,188,-78,-227,172,55,29,135,213,194,174,-21
266,189,-77,-227,172,56,29,135,213,195,176,-20
266,191,-75,-228,171,58,29,134,212,194,175,-20
265,192,-73,-228,169,60,29,133,211,194,176,-20
264,191,-73,-227,169,59,29,132,211,194,176,-19
264,190,-74,-227,169,58,28,129,209,193,175,-20
263,190,-73,-226,168,59,27,127,207,192,173,-21
263,190,-73,-226,168,59,26,124,204,190,171,-23
262,189,-73,-225,168,58,26,122,201,189,170,-24
261,187,-74,-224,168,57,26,120,196,186,169,-25
260,185,-75,-222,168,55,26,117,190,183,166,-27
258,183,-75,-220,167,54,26,114,188,179,164,-29
257,181,-76,-219,167,53,27,112,185,175,161,-30
256,179,-77,-217,167,51,28,110,182,169,157,-32
253,176,-77,-214,165,50,27,106,178,163,152,-34
250,172,-78,-211,164,47,27,103,172,157,147,-38
248,168,-80,-208,164,44,27,99,164,149,141,-42
247,164,-83,-205,165,41,26,95,158,143,136,-46
245,161,-84,-203,165,39,26,92,155,137,131,-49
243,158,-85,-200,164,37,26,87,150,130,127,-52
241,155,-86,-198,164,35,26,83,143,123,121,-55
239,151,-88,-195,164,32,27,81,136,117,116,-58
237,146,-91,-191,164,28,27,79,130,109,111,-61
235,142,-93,-188,164,25,27,76,125,100,104,-65
233,139,-94,-186,164,23,27,72,121,93,99,-70
232,136,-96,-184,164,20,27,70,118,87,95,-72
230,133,-97,-181,164,18,27,66,113,80,89,-76
229,130,-99,-179,164,16,27,63,108,74,85,-79
228,126,-102,-177,165,12,26,58,103,67,80,-83
227,123,-104,-175,166,10,26,55,98,61,76,-85
225,120,-105,-172,165,8,25,53,92,55,72,-88
223,117,-106,-170,165,6,25,51,87,50,69,-89
221,114,-107,-167,164,4,26,50,82,45,66,-91
220,111,-109,-165,165,1,25,48,76,39,61,-95
219,109,-110,-164,165,0,25,46,72,35,57,-98
217,106,-111,-161,164,-2,25,45,71,32,55,-100
216,104,-112,-160,164,-4,24,44,69,28,52,-103
215,102,-113,-158,164,-5,23,42,67,25,50,-104
215,100,-115,-157,165,-7,22,40,63,20,47,-106
214,98,-116,-156,165,-9,22,38,60,17,45,-106
214,96,-118,-155,166,-11,22,36,58,14,44,-106
212,94,-118,-153,165,-12,22,34,56,11,43,-108
211,92,-119,-151,165,-13,23,33,54,8,41,-109
211,90,-121,-150,166,-15,23,33,52,6,39,-110
211,90,-121,-150,166,-15,22,32,50,4,37,-112
210,89,-121,-149,166,-16,22,32,50,4,36,-112
210,88,-122,-149,166,-17,21,31,48,2,35,-113
210,87,-123,-148,167,-18,21,30,47,1,34,-114
209,86,-123,-147,166,-18,22,30,46,0,33,-114
209,86,-123,-147,166,-18,21,29,45,-1,32,-115
209,85,-124,-147,167,-19,21,28,43,-2,31,-116
209,84,-125,-146,167,-20,22,29,44,-3,32,-116
209,84,-125,-146,167,-20,22,29,43,-5,32,-116
209,83,-126,-146,168,-21,22,29,42,-7,31,-117
209,83,-126,-146,168,-21,22,28,41,-8,30,-118
209,82,-127,-145,168,-22,21,27,40,-9,28,-119
209,82,-127,-145,168,-22,21,27,39,-9,28,-120
208,82,-126,-145,167,-22,22,27,40,-8,29,-119
208,82,-126,-145,167,-22,22,27,40,-8,28,-119
209,81,-128,-145,169,-23,22,26,40,-8,28,-118
209,81,-128,-145,169,-23,22,26,40,-8,28,-118
209,80,-129,-144,169,-24,21,26,40,-9,28,-118
208,79,-129,-143,169,-25,23,28,41,-8,29,-118
208,79,-129,-143,169,-25,23,28,40,-8,29,-119
208,80,-128,-144,168,-24,22,28,40,-8,27,-121
209,79,-130,-144,170,-25,22,27,41,-9,27,-122
209,79,-130,-144,170,-25,22,27,40,-9,27,-123
209,79,-130,-144,170,-25,22,26,39,-10,27,-122
209,79,-130,-144,170,-25,22,26,39,-10,27,-122
209,79,-130,-144,170,-25,22,26,39,-9,27,-120
209,80,-129,-144,169,-24,22,27,39,-8,27,-119
210,80,-130,-145,170,-25,23,29,40,-8,28,-118
211,80,-131,-145,171,-25,23,28,40,-9,27,-119
211,80,-131,-145,171,-25,24,29,41,-10,27,-120
209,80,-129,-144,169,-24,24,29,42,-10,27,-121
207,78,-129,-142,168,-25,23,29,42,-11,26,-123
207,77,-130,-142,169,-26,24,29,43,-10,27,-121
207,78,-129,-142,168,-25,24,29,42,-10,27,-121
208,78,-130,-143,169,-26,25,29,41,-10,27,-120
208,78,-130,-143,169,-26,24,29,38,-10,28,-120
208,77,-131,-142,170,-27,23,28,37,-9,28,-120
208,76,-132,-142,170,-28,24,29,39,-8,29,-120
207,76,-131,-141,169,-27,25,30,42,-8,29,-120
208,76,-132,-142,170,-28,25,31,44,-8,29,-120
207,77,-130,-142,169,-26,25,32,45,-7,29,-120
206,77,-129,-141,168,-26,24,32,44,-7,28,-120
207,76,-131,-141,169,-27,25,32,43,-7,29,-120
207,77,-130,-142,169,-26,25,31,43,-6,29,-120
207,77,-130,-142,169,-26,26,31,44,-5,29,-120
207,77,-130,-142,169,-26,25,31,45,-5,29,-121
207,77,-130,-142,169,-26,24,31,45,-5,29,-121
207,76,-131,-141,169,-27,23,31,45,-6,29,-120
206,76,-130,-141,168,-27,24,32,44,-6,29,-120
206,76,-130,-141,168,-27,24,33,44,-6,29,-120
207,76,-131,-141,169,-27,25,33,45,-7,28,-121
207,77,-130,-142,169,-26,25,34,46,-7,27,-121
207,77,-130,-142,169,-26,25,34,48,-7,27,-120
208,78,-130,-143,169,-26,25,33,48,-8,27,-121
208,78,-130,-143,169,-26,25,33,48,-8,27,-121
208,78,-130,-143,169,-26,25,32,48,-8,28,-120
208,78,-130,-143,169,-26,25,32,47,-8,28,-120
208,78,-130,-143,169,-26,26,32,46,-8,28,-119
208,77,-131,-142,170,-27,26,32,44,-8,27,-119
207,77,-130,-142,169,-26,27,33,43,-8,28,-119
207,77,-130,-142,169,-26,27,33,42,-8,27,-120
206,78,-128,-142,167,-25,26,33,42,-9,27,-120
207,78,-129,-142,168,-25,25,32,42,-10,26,-122
208,78,-130,-143,169,-26,25,33,44,-8,26,-122
208,78,-130,-143,169,-26,25,32,45,-8,26,-122
209,78,-131,-143,170,-26,25,32,46,-9,26,-122
208,78,-130,-143,169,-26,25,32,45,-8,27,-122
208,78,-130,-143,169,-26,25,32,44,-8,27,-121
208,78,-130,-143,169,-26,25,32,44,-9,28,-120
209,79,-130,-144,170,-25,24,31,43,-9,27,-121
209,79,-130,-144,170,-25,24,31,43,-9,27,-120
209,79,-130,-144,170,-25,24,31,42,-9,27,-122
209,79,-130,-144,170,-25,24,30,42,-9,26,-123
209,79,-130,-144,170,-25,24,30,41,-9,26,-123
209,78,-131,-143,170,-26,25,31,41,-8,27,-122
209,78,-131,-143,170,-26,25,30,41,-8,27,-122
209,78,-131,-143,170,-26,26,30,41,-8,27,-121
209,78,-131,-143,170,-26,26,30,41,-9,28,-121
209,78,-131,-143,170,-26,26,30,41,-9,27,-121
209,77,-132,-143,171,-27,25,30,41,-11,27,-122
208,77,-131,-142,170,-27,26,30,41,-12,26,-123
208,77,-131,-142,170,-27,26,30,41,-12,26,-123
208,77,-131,-142,170,-27,27,30,41,-12,26,-123
208,78,-130,-143,169,-26,27,30,41,-11,27,-122
209,79,-130,-144,170,-25,27,29,40,-12,26,-123
210,79,-131,-144,171,-26,26,29,40,-12,27,-122
208,77,-131,-142,170,-27,26,29,39,-12,27,-122
206,75,-131,-140,169,-28,27,29,38,-11,27,-121
206,76,-130,-141,168,-27,26,29,37,-12,26,-122
207,77,-130,-142,169,-26,26,29,38,-12,25,-122
206,77,-129,-141,168,-26,26,29,38,-13,24,-123
206,76,-130,-141,168,-27,25,28,37,-14,23,-124
206,76,-130,-141,168,-27,24,27,37,-15,23,-124
206,75,-131,-140,169,-28,25,27,39,-14,23,-123
206,75,-131,-140,169,-28,25,26,39,-15,23,-123
207,76,-131,-141,169,-27,25,26,37,-16,23,-124
206,76,-130,-141,168,-27,25,26,36,-17,24,-124
206,76,-130,-141,168,-27,25,26,35,-17,24,-125
206,75,-131,-140,169,-28,25,27,35,-17,24,-124
206,74,-132,-140,169,-29,25,27,34,-16,24,-124
205,74,-131,-139,168,-28,25,27,33,-16,23,-124
205,73,-132,-139,169,-29,26,27,33,-16,23,-123
204,72,-132,-138,168,-30,25,26,32,-17,22,-124
204,72,-132,-138,168,-30,25,25,32,-17,22,-123
205,73,-132,-139,169,-29,25,26,33,-17,23,-122
206,74,-132,-140,169,-29,25,26,32,-17,22,-123
206,74,-132,-140,169,-29,24,25,33,-17,22,-124
205,73,-132,-139,169,-29,24,25,33,-18,22,-124
203,71,-132,-137,168,-30,24,25,33,-18,22,-124
203,72,-131,-137,167,-29,25,26,34,-18,22,-124
204,72,-132,-138,168,-30,24,26,35,-19,21,-125
204,72,-132,-138,168,-30,25,26,36,-19,21,-125
205,72,-133,-138,169,-30,25,26,35,-19,21,-124
205,72,-133,-138,169,-30,24,25,33,-19,21,-124
204,73,-131,-138,168,-29,24,25,31,-20,21,-124
205,73,-132,-139,169,-29,24,25,29,-20,22,-125
205,73,-132,-139,169,-29,24,25,27,-19,23,-125
204,72,-132,-138,168,-30,24,25,26,-19,22,-125
203,71,-132,-137,168,-30,25,26,27,-18,22,-125
202,71,-131,-136,167,-30,25,26,29,-18,22,-125
202,71,-131,-136,167,-30,25,26,30,-18,22,-125
203,71,-132,-137,168,-30,25,27,32,-18,22,-124
203,70,-133,-136,168,-31,25,26,32,-18,22,-125
203,70,-133,-136,168,-31,25,26,33,-18,21,-125
204,70,-134,-137,169,-32,25,26,33,-18,21,-126
204,71,-133,-137,169,-31,25,26,32,-18,21,-126
204,71,-133,-137,169,-31,24,26,31,-18,21,-125
204,71,-133,-137,169,-31,24,26,30,-18,21,-125
203,71,-132,-137,168,-30,24,26,31,-19,20,-126
203,71,-132,-137,168,-30,25,26,32,-18,21,-126
204,71,-133,-137,169,-31,25,27,32,-18,21,-125
204,70,-134,-137,169,-32,25,27,33,-18,21,-124
204,70,-134,-137,169,-32,25,27,33,-18,20,-125
204,69,-135,-136,170,-33,24,25,32,-19,20,-126
203,69,-134,-136,169,-32,25,25,32,-19,20,-126
202,69,-133,-135,168,-32,25,24,30,-19,20,-126
202,69,-133,-135,168,-32,25,24,29,-18,20,-126
203,69,-134,-136,169,-32,25,24,29,-18,20,-127
203,69,-134,-136,169,-32,25,25,29,-18,21,-127
203,69,-134,-136,169,-32,25,26,29,-19,20,-127
203,69,-134,-136,169,-32,24,26,29,-20,20,-127
203,68,-135,-135,169,-33,24,26,29,-20,19,-127
203,68,-135,-135,169,-33,24,25,29,-20,20,-127
202,69,-133,-135,168,-32,24,24,30,-19,20,-126
203,70,-133,-136,168,-31,24,23,29,-20,19,-126
203,69,-134,-136,169,-32,25,24,30,-20,20,-126
203,69,-134,-136,169,-32,25,24,29,-20,20,-126
202,69,-133,-135,168,-32,26,25,29,-20,20,-125
202,69,-133,-135,168,-32,26,25,29,-20,20,-125
202,69,-133,-135,168,-32,26,25,28,-20,20,-125
202,68,-134,-135,168,-33,26,25,28,-20,19,-126
202,69,-133,-135,168,-32,26,25,28,-20,18,-127
202,69,-133,-135,168,-32,26,25,29,-20,18,-127
203,70,-133,-136,168,-31,25,23,29,-22,17,-128
203,70,-133,-136,168,-31,25,23,29,-22,17,-128
203,69,-134,-136,169,-32,25,24,30,-22,18,-127
202,68,-134,-135,168,-33,25,24,29,-22,18,-127
202,69,-133,-135,168,-32,25,24,28,-21,19,-127
203,70,-133,-136,168,-31,25,23,26,-22,19,-128
203,70,-133,-136,168,-31,25,24,26,-22,19,-127
203,70,-133,-136,168,-31,25,24,25,-21,19,-127
202,69,-133,-135,168,-32,26,24,26,-20,19,-126
202,69,-133,-135,168,-32,25,23,25,-20,18,-127
202,68,-134,-135,168,-33,25,22,25,-21,18,-128
202,68,-134,-135,168,-33,25,22,25,-21,18,-129
202,68,-134,-135,168,-33,26,22,25,-21,18,-129
203,68,-135,-135,169,-33,26,22,25,-21,19,-128
203,68,-135,-135,169,-33,26,23,26,-21,19,-128
203,68,-135,-135,169,-33,25,24,26,-21,20,-127
203,68,-135,-135,169,-33,26,24,26,-21,19,-126
202,69,-133,-135,168,-32,26,25,26,-21,19,-125
202,68,-134,-135,168,-33,26,25,27,-21,18,-126
202,68,-134,-135,168,-33,26,24,28,-21,18,-127
202,68,-134,-135,168,-33,25,24,29,-21,18,-127
203,69,-134,-136,169,-32,26,23,28,-20,19,-127
203,69,-134,-136,169,-32,27,22,25,-20,19,-126
202,68,-134,-135,168,-33,27,22,22,-20,19,-127
201,67,-134,-134,168,-33,27,23,23,-20,19,-127
201,67,-134,-134,168,-33,27,24,26,-20,19,-127
202,68,-134,-135,168,-33,27,23,27,-21,18,-128
202,69,-133,-135,168,-32,28,24,28,-20,19,-127
203,70,-133,-136,168,-31,27,23,26,-22,18,-128
203,70,-133,-136,168,-31,27,23,25,-22,18,-128
203,69,-134,-136,169,-32,27,23,24,-22,18,-128
202,67,-135,-134,169,-34,28,23,26,-20,18,-128
201,67,-134,-134,168,-33,28,22,26,-20,18,-128
201,67,-134,-134,168,-33,28,22,25,-20,19,-128
201,68,-133,-134,167,-32,28,23,24,-20,19,-127
202,68,-134,-135,168,-33,27,23,24,-21,18,-128
202,68,-134,-135,168,-33,27,23,24,-22,17,-129
201,68,-133,-134,167,-32,27,24,26,-20,18,-128
201,68,-133,-134,167,-32,27,24,26,-19,18,-128
201,68,-133,-134,167,-32,27,24,28,-20,18,-128
201,69,-132,-135,167,-31,26,22,27,-21,17,-130
201,68,-133,-134,167,-32,27,23,28,-21,18,-129
201,68,-133,-134,167,-32,27,23,28,-21,18,-129
202,68,-134,-135,168,-33,26,22,27,-22,17,-130
202,68,-134,-135,168,-33,26,23,27,-22,18,-129
202,68,-134,-135,168,-33,26,23,26,-22,17,-129
202,68,-134,-135,168,-33,25,23,26,-22,17,-129
202,68,-134,-135,168,-33,25,23,25,-23,16,-130
201,68,-133,-134,167,-32,26,23,25,-22,17,-129
201,67,-134,-134,168,-33,26,22,25,-22,17,-129
201,67,-134,-134,168,-33,26,22,25,-22,17,-129
201,67,-134,-134,168,-33,26,22,25,-23,17,-129
201,68,-133,-134,167,-32,25,22,25,-24,17,-129
201,68,-133,-134,167,-32,25,22,25,-23,17,-129
201,68,-133,-134,167,-32,25,23,25,-23,17,-129
201,67,-134,-134,168,-33,25,23,25,-23,16,-129
201,65,-136,-133,169,-35,26,24,26,-21,16,-129
201,66,-135,-133,168,-34,25,23,25,-22,16,-130
200,67,-133,-133,167,-33,25,23,26,-22,16,-130
200,67,-133,-133,167,-33,25,23,27,-22,15,-130
200,66,-134,-133,167,-34,26,23,28,-22,16,-129
201,66,-135,-133,168,-34,25,21,27,-23,15,-131
201,66,-135,-133,168,-34,25,21,27,-23,16,-131
201,67,-134,-134,168,-33,25,22,26,-23,16,-130
201,67,-134,-134,168,-33,25,22,25,-22,16,-130
201,68,-133,-134,167,-32,25,22,25,-22,16,-129
201,68,-133,-134,167,-32,25,22,26,-22,16,-129
201,68,-133,-134,167,-32,26,22,26,-22,16,-130
201,67,-134,-134,168,-33,26,22,26,-23,15,-131
201,67,-134,-134,168,-33,25,22,26,-23,15,-131
200,66,-134,-133,167,-34,26,22,26,-22,16,-130
200,66,-134,-133,167,-34,26,22,26,-22,16,-130
200,66,-134,-133,167,-34,27,22,26,-22,17,-129
200,67,-133,-133,167,-33,26,21,25,-22,16,-130
200,67,-133,-133,167,-33,26,21,25,-23,16,-130
200,68,-132,-134,166,-32,26,22,25,-23,16,-130
200,67,-133,-133,167,-33,26,23,25,-24,16,-129
199,67,-132,-133,166,-32,26,23,25,-23,16,-130
198,66,-132,-132,165,-33,25,22,24,-24,15,-131
199,66,-133,-132,166,-33,25,21,23,-25,15,-131
200,66,-134,-133,167,-34,26,22,23,-24,16,-130
201,66,-135,-133,168,-34,25,21,22,-24,15,-131
201,66,-135,-133,168,-34,24,21,22,-23,15,-131
201,66,-135,-133,168,-34,24,21,22,-22,15,-131
201,66,-135,-133,168,-34,24,21,22,-22,16,-130
201,66,-135,-133,168,-34,24,22,21,-22,16,-130
201,66,-135,-133,168,-34,25,22,22,-22,16,-131
201,66,-135,-133,168,-34,24,22,23,-22,15,-131
200,66,-134,-133,167,-34,25,23,26,-21,16,-130
201,65,-136,-133,169,-35,26,23,27,-21,15,-130
202,67,-135,-134,169,-34,26,22,26,-21,14,-131
202,67,-135,-134,169,-34,26,22,25,-21,15,-131
202,67,-135,-134,169,-34,26,21,24,-21,15,-130
202,67,-135,-134,169,-34,25,21,23,-21,15,-130
203,67,-136,-135,170,-34,24,21,22,-23,14,-131
203,67,-136,-135,170,-34,24,21,22,-23,14,-131
203,67,-136,-135,170,-34,23,22,22,-23,14,-131
202,67,-135,-134,169,-34,24,23,22,-22,15,-131
202,67,-135,-134,169,-34,24,22,22,-23,14,-131
202,66,-136,-134,169,-35,24,21,23,-23,14,-131
202,65,-137,-133,170,-36,24,21,24,-24,14,-131
"
		202","
		66","
		-136","
		-134","
		169","
		-35","
		25","
		21","
		26","
		-23","
		15","
		-131"
202,66,-136,-134,169,-35,25,21,27,-22,16,-130
202,66,-136,-134,169,-35,25,21,26,-21,16,-130
201,65,-136,-133,169,-35,25,22,26,-21,16,-129
200,65,-135,-132,168,-35,26,22,25,-22,15,-129
200,66,-134,-133,167,-34,26,22,25,-22,15,-129
200,66,-134,-133,167,-34,27,22,24,-22,15,-129
201,66,-135,-133,168,-34,26,22,23,-24,14,-130
201,65,-136,-133,169,-35,27,22,24,-23,15,-129
201,66,-135,-133,168,-34,26,21,24,-24,14,-131
200,67,-133,-133,167,-33,25,21,25,-23,14,-132
200,66,-134,-133,167,-34,25,21,26,-22,15,-131
200,65,-135,-132,168,-35,25,21,26,-22,15,-132
200,65,-135,-132,168,-35,25,21,25,-22,15,-132
200,65,-135,-132,168,-35,25,21,24,-23,15,-132
199,64,-135,-131,167,-35,25,22,24,-23,16,-131
198,65,-133,-131,166,-34,26,23,24,-23,15,-131
199,65,-134,-132,167,-34,26,22,24,-23,14,-131
200,65,-135,-132,168,-35,26,22,25,-23,14,-131
200,65,-135,-132,168,-35,26,22,25,-23,15,-131
200,65,-135,-132,168,-35,26,22,25,-23,15,-131
200,65,-135,-132,168,-35,27,22,24,-23,15,-130
200,65,-135,-132,168,-35,27,22,24,-23,16,-130
200,65,-135,-132,168,-35,28,22,24,-22,17,-131
200,66,-134,-133,167,-34,28,23,23,-22,17,-131
201,66,-135,-133,168,-34,26,21,22,-23,16,-131
201,66,-135,-133,168,-34,26,21,21,-23,16,-131
201,66,-135,-133,168,-34,26,22,21,-23,15,-131
202,67,-135,-134,169,-34,26,23,22,-22,15,-131
202,67,-135,-134,169,-34,27,23,23,-21,15,-131
202,67,-135,-134,169,-34,27,23,24,-20,16,-131
201,66,-135,-133,168,-34,27,22,23,-21,15,-131
200,65,-135,-132,168,-35,27,22,22,-22,16,-131
199,64,-135,-131,167,-35,28,23,23,-23,16,-130
200,64,-136,-132,168,-36,27,23,22,-24,14,-131
200,64,-136,-132,168,-36,28,23,23,-24,14,-131
200,65,-135,-132,168,-35,27,23,23,-24,14,-133
200,65,-135,-132,168,-35,27,23,22,-25,14,-134
200,65,-135,-132,168,-35,27,23,23,-24,14,-134
200,65,-135,-132,168,-35,27,23,23,-24,14,-133
200,65,-135,-132,168,-35,27,23,23,-24,14,-133
200,65,-135,-132,168,-35,27,22,23,-24,14,-133
200,65,-135,-132,168,-35,27,23,22,-23,15,-132
201,65,-136,-133,169,-35,28,23,22,-22,16,-132
201,66,-135,-133,168,-34,27,22,21,-24,14,-132
200,65,-135,-132,168,-35,27,23,21,-24,14,-131
199,65,-134,-132,167,-34,27,22,21,-24,14,-132
199,65,-134,-132,167,-34,27,22,21,-24,13,-133
199,66,-133,-132,166,-33,26,22,22,-24,13,-133
200,66,-134,-133,167,-34,26,22,22,-23,14,-133
200,66,-134,-133,167,-34,27,22,21,-23,14,-134
201,66,-135,-133,168,-34,26,21,18,-24,13,-135
201,66,-135,-133,168,-34,26,20,17,-24,13,-135
201,66,-135,-133,168,-34,25,20,17,-24,13,-134
200,65,-135,-132,168,-35,26,21,18,-23,13,-133
199,65,-134,-132,167,-34,26,21,19,-23,13,-132
198,65,-133,-131,166,-34,27,23,20,-23,14,-131
199,65,-134,-132,167,-34,27,22,20,-24,14,-133
199,65,-134,-132,167,-34,27,22,21,-24,14,-133
199,65,-134,-132,167,-34,27,21,21,-24,14,-133
198,65,-133,-131,166,-34,28,22,23,-23,15,-132
199,66,-133,-132,166,-33,28,21,22,-24,14,-134
199,67,-132,-133,166,-32,28,22,22,-25,14,-134
199,67,-132,-133,166,-32,28,22,22,-25,14,-134
199,68,-131,-133,165,-31,28,21,20,-26,13,-134
199,67,-132,-133,166,-32,29,22,21,-25,13,-133
199,66,-133,-132,166,-33,30,22,20,-25,13,-134
199,66,-133,-132,166,-33,29,22,20,-26,13,-134
199,66,-133,-132,166,-33,29,22,20,-26,13,-133
200,66,-134,-133,167,-34,29,21,20,-25,13,-133
201,66,-135,-133,168,-34,29,20,19,-26,12,-134
200,66,-134,-133,167,-34,30,21,21,-25,13,-133
200,65,-135,-132,168,-35,30,21,20,-24,13,-132
200,65,-135,-132,168,-35,30,21,19,-24,13,-131
200,65,-135,-132,168,-35,30,22,17,-24,13,-132
200,66,-134,-133,167,-34,29,22,17,-24,13,-133
200,66,-134,-133,167,-34,29,22,17,-24,14,-134
200,66,-134,-133,167,-34,29,21,18,-24,13,-134
199,66,-133,-132,166,-33,29,21,20,-24,13,-134
198,67,-131,-132,165,-32,29,21,20,-25,13,-134
199,67,-132,-133,166,-32,29,21,21,-25,14,-134
199,67,-132,-133,166,-32,30,21,21,-24,14,-134
198,66,-132,-132,165,-33,30,21,20,-24,13,-134
197,65,-132,-131,165,-33,30,21,20,-23,13,-134
196,65,-131,-130,164,-33,30,21,20,-24,12,-134
197,66,-131,-131,164,-32,31,22,20,-23,12,-133
199,67,-132,-133,166,-32,31,23,19,-24,12,-133
200,68,-132,-134,166,-32,30,22,19,-25,12,-134
200,68,-132,-134,166,-32,30,22,20,-25,12,-134
200,68,-132,-134,166,-32,30,21,20,-25,13,-134
199,67,-132,-133,166,-32,31,22,21,-24,13,-133
199,66,-133,-132,166,-33,31,21,20,-24,13,-134
198,65,-133,-131,166,-34,31,22,19,-24,14,-134
198,66,-132,-132,165,-33,30,22,18,-25,13,-135
198,67,-131,-132,165,-32,31,22,18,-25,13,-134
198,67,-131,-132,165,-32,31,22,19,-25,12,-134
198,67,-131,-132,165,-32,30,22,21,-25,12,-135
197,67,-130,-132,164,-31,29,21,21,-26,11,-136
198,67,-131,-132,165,-32,30,21,22,-26,12,-136
199,67,-132,-133,166,-32,31,21,21,-26,12,-135
200,68,-132,-134,166,-32,30,21,20,-26,11,-136
200,68,-132,-134,166,-32,30,20,19,-26,11,-136
199,67,-132,-133,166,-32,30,21,19,-25,12,-135
198,66,-132,-132,165,-33,29,20,18,-25,12,-136
199,67,-132,-133,166,-32,29,21,18,-25,11,-136
199,68,-131,-133,165,-31,29,21,17,-25,11,-137
199,68,-131,-133,165,-31,29,21,17,-25,11,-136
199,68,-131,-133,165,-31,29,21,16,-26,11,-136
198,67,-131,-132,165,-32,31,22,19,-26,12,-134
199,66,-133,-132,166,-33,31,22,21,-27,12,-134
200,66,-134,-133,167,-34,31,22,22,-27,12,-133
199,66,-133,-132,166,-33,31,22,22,-27,12,-134
199,66,-133,-132,166,-33,30,21,22,-26,12,-134
199,66,-133,-132,166,-33,30,22,21,-25,12,-135
199,66,-133,-132,166,-33,31,22,21,-25,12,-135
200,67,-133,-133,167,-33,29,22,20,-26,12,-137
200,68,-132,-134,166,-32,29,22,20,-26,12,-137
200,68,-132,-134,166,-32,29,22,19,-26,12,-137
199,68,-131,-133,165,-31,29,22,19,-27,11,-137
198,68,-130,-133,164,-31,31,22,22,-26,11,-135
199,68,-131,-133,165,-31,29,20,22,-27,11,-136
200,68,-132,-134,166,-32,29,20,22,-26,11,-137
200,68,-132,-134,166,-32,29,20,20,-27,11,-137
200,69,-131,-134,166,-31,30,21,19,-27,11,-136
199,69,-130,-134,165,-30,30,21,18,-28,12,-136
199,69,-130,-134,165,-30,30,21,18,-28,11,-136
198,69,-129,-133,164,-30,30,21,19,-27,11,-136
199,69,-130,-134,165,-30,31,21,20,-27,11,-136
199,69,-130,-134,165,-30,31,21,22,-26,11,-136
199,69,-130,-134,165,-30,31,20,22,-27,10,-137
198,68,-130,-133,164,-31,32,20,24,-27,10,-137
199,67,-132,-133,166,-32,32,21,23,-27,11,-137
200,67,-133,-133,167,-33,31,21,21,-27,11,-138
200,67,-133,-133,167,-33,32,21,19,-28,11,-138
200,67,-133,-133,167,-33,32,22,18,-28,11,-137
200,66,-134,-133,167,-34,34,25,20,-27,12,-136
201,65,-136,-133,169,-35,35,26,21,-26,12,-136
201,65,-136,-133,169,-35,36,27,22,-25,12,-137
201,65,-136,-133,169,-35,37,28,24,-23,12,-136
202,66,-136,-134,169,-35,38,28,26,-23,13,-136
203,66,-137,-134,170,-35,39,30,28,-21,14,-136
204,66,-138,-135,171,-36,39,31,27,-21,14,-136
206,66,-140,-136,173,-37,39,32,27,-20,15,-135
207,67,-140,-137,174,-36,37,32,27,-20,14,-135
207,67,-140,-137,174,-36,37,33,28,-20,15,-135
206,69,-137,-137,172,-34,37,33,29,-19,16,-135
205,70,-135,-137,170,-32,37,32,30,-19,16,-135
205,69,-136,-137,171,-33,36,32,31,-21,16,-135
206,68,-138,-137,172,-35,35,31,30,-22,15,-135
206,67,-139,-136,173,-36,34,30,30,-23,15,-135
206,67,-139,-136,173,-36,35,30,29,-23,16,-135
206,67,-139,-136,173,-36,36,31,29,-22,16,-134
206,67,-139,-136,173,-36,38,33,28,-22,16,-135
206,68,-138,-137,172,-35,39,35,29,-21,16,-135
206,68,-138,-137,172,-35,39,34,28,-22,15,-135
207,68,-139,-137,173,-35,38,33,27,-22,13,-135
207,67,-140,-137,174,-36,38,33,27,-23,14,-136
207,68,-139,-137,173,-35,38,33,28,-22,15,-135
208,68,-140,-138,174,-36,37,32,28,-22,15,-136
208,69,-139,-138,174,-35,36,31,28,-22,14,-135
208,70,-138,-139,173,-34,34,29,27,-23,14,-135
207,69,-138,-138,173,-34,32,27,24,-23,14,-135
206,68,-138,-137,172,-35,29,25,21,-24,14,-135
206,66,-140,-136,173,-37,27,23,19,-25,14,-134
206,67,-139,-136,173,-36,26,22,18,-26,12,-136
207,67,-140,-137,174,-36,27,24,19,-26,12,-135
207,68,-139,-137,173,-35,28,24,21,-25,13,-135
207,68,-139,-137,173,-35,28,23,21,-25,13,-135
207,68,-139,-137,173,-35,28,24,22,-24,13,-135
208,68,-140,-138,174,-36,28,24,21,-25,12,-135
208,68,-140,-138,174,-36,29,24,23,-25,13,-135
209,68,-141,-138,175,-36,30,25,24,-24,13,-135
209,68,-141,-138,175,-36,30,25,24,-24,14,-134
208,68,-140,-138,174,-36,29,25,23,-24,14,-134
208,68,-140,-138,174,-36,29,25,22,-25,13,-135
208,68,-140,-138,174,-36,28,23,21,-26,12,-136
207,68,-139,-137,173,-35,28,23,19,-27,12,-135
207,67,-140,-137,174,-36,26,21,18,-29,11,-136
205,67,-138,-136,172,-35,27,21,19,-28,11,-136
204,66,-138,-135,171,-36,27,20,18,-28,9,-137
202,66,-136,-134,169,-35,27,19,17,-29,8,-138
200,66,-134,-133,167,-34,29,20,18,-29,9,-138
199,66,-133,-132,166,-33,30,21,19,-28,9,-139
197,65,-132,-131,165,-33,32,23,19,-27,9,-139
196,65,-131,-130,164,-33,32,23,18,-28,8,-139
196,64,-132,-130,164,-34,33,24,18,-27,9,-138
196,65,-131,-130,164,-33,32,24,17,-28,9,-138
196,66,-130,-131,163,-32,32,23,18,-27,10,-138
196,65,-131,-130,164,-33,31,23,18,-27,9,-138
196,64,-132,-130,164,-34,30,23,19,-26,10,-137
196,64,-132,-130,164,-34,29,23,19,-27,10,-137
196,64,-132,-130,164,-34,29,23,20,-28,10,-137
196,64,-132,-130,164,-34,30,22,20,-28,10,-137
196,64,-132,-130,164,-34,29,22,19,-29,10,-137
196,64,-132,-130,164,-34,29,22,19,-29,10,-137
196,64,-132,-130,164,-34,30,22,20,-28,10,-137
197,64,-133,-130,165,-34,29,22,20,-30,9,-139
196,64,-132,-130,164,-34,30,22,21,-29,10,-138
196,64,-132,-130,164,-34,30,22,21,-29,10,-138
196,64,-132,-130,164,-34,30,22,20,-30,11,-137
196,65,-131,-130,164,-33,30,21,18,-31,10,-138
196,66,-130,-131,163,-32,30,21,19,-30,11,-137
196,66,-130,-131,163,-32,31,22,21,-29,11,-136
196,66,-130,-131,163,-32,31,22,22,-28,11,-135
196,65,-131,-130,164,-33,31,22,21,-27,11,-136
196,65,-131,-130,164,-33,31,22,20,-27,11,-136
196,65,-131,-130,164,-33,31,22,19,-27,11,-137
196,65,-131,-130,164,-33,31,22,18,-27,11,-137
195,64,-131,-129,163,-33,31,22,17,-26,12,-137
194,63,-131,-128,163,-34,32,23,17,-25,12,-136
195,64,-131,-129,163,-33,31,22,18,-26,12,-137
195,66,-129,-130,162,-31,30,22,19,-26,11,-137
195,65,-130,-130,163,-32,32,24,21,-24,12,-136
195,64,-131,-129,163,-33,32,26,23,-23,11,-137
195,63,-132,-129,164,-34,33,28,25,-23,10,-137
194,62,-132,-128,163,-35,36,32,28,-24,10,-139
194,61,-133,-127,164,-36,38,35,30,-23,9,-141
194,60,-134,-127,164,-37,42,40,34,-20,8,-142
194,58,-136,-126,165,-39,45,45,38,-18,7,-143
194,57,-137,-125,166,-40,49,50,44,-14,7,-145
194,59,-135,-126,165,-38,49,52,51,-8,8,-145
195,63,-132,-129,164,-34,48,51,56,1,11,-143
198,66,-132,-132,165,-33,47,51,61,11,17,-140
203,68,-135,-135,169,-33,47,55,67,21,24,-136
209,70,-139,-139,174,-34,47,62,75,33,33,-130
215,72,-143,-143,179,-35,51,74,89,49,44,-123
220,77,-143,-148,182,-33,56,88,105,67,57,-117
225,86,-139,-155,182,-26,64,105,129,92,74,-106
232,99,-133,-165,183,-17,65,116,152,122,96,-93
242,116,-126,-179,184,-5,59,116,168,154,122,-76
252,137,-115,-194,184,11,43,100,174,188,155,-52
263,165,-98,-214,181,34,18,68,168,227,193,-23
275,198,-77,-236,176,61,-16,24,155,272,236,9
287,232,-55,-259,171,89,-56,-26,134,320,280,39
297,260,-37,-278,167,112,-89,-72,109,366,320,67
302,275,-27,-288,165,124,-114,-113,89,406,350,85
297,280,-17,-288,157,132,-130,-151,78,440,368,92
279,277,-2,-278,141,138,-135,-184,69,463,373,92
255,268,13,-261,121,141,-132,-205,50,462,362,84
232,249,17,-240,108,133,-126,-219,16,423,333,67
212,220,8,-216,102,114,-120,-229,-33,332,279,37
192,186,-6,-189,99,90,-112,-225,-88,206,206,-1
170,152,-18,-161,94,67,-94,-206,-129,81,133,-39
148,122,-26,-135,87,48,-70,-182,-154,-18,68,-77
132,97,-35,-114,84,31,-51,-160,-165,-83,18,-108
126,81,-45,-103,86,18,-46,-147,-166,-113,-13,-130
129,73,-56,-101,93,9,-51,-142,-164,-117,-25,-142
135,67,-68,-101,102,0,-57,-139,-162,-116,-30,-149
141,61,-80,-101,111,-9,-62,-133,-156,-115,-32,-153
150,58,-92,-104,121,-17,-67,-125,-146,-108,-29,-154
160,56,-104,-108,132,-24,-68,-112,-131,-97,-24,-154
167,53,-114,-110,141,-30,-60,-92,-111,-86,-20,-155
173,48,-125,-110,149,-38,-46,-70,-90,-75,-15,-154
177,43,-134,-110,156,-45,-35,-52,-73,-67,-11,-154
181,40,-141,-110,161,-50,-24,-36,-58,-59,-7,-152
185,40,-145,-112,165,-52,-11,-21,-41,-52,-5,-150
189,42,-147,-115,168,-52,1,-4,-23,-43,1,-148
192,46,-146,-119,169,-50,11,9,-6,-32,7,-144
194,53,-141,-123,168,-44,19,20,11,-21,13,-139
198,60,-138,-129,168,-39,24,29,24,-12,19,-134
200,67,-133,-133,167,-33,30,39,35,-4,25,-130
200,72,-128,-136,164,-28,34,46,43,2,29,-126
199,77,-122,-138,161,-22,34,47,48,6,31,-124
199,81,-118,-140,159,-18,34,47,52,9,33,-123
198,81,-117,-139,158,-18,35,48,55,9,33,-125
197,81,-116,-139,157,-17,36,50,57,8,32,-125
198,81,-117,-139,158,-18,35,49,57,7,30,-126
199,80,-119,-139,159,-19,35,49,58,7,30,-125
199,80,-119,-139,159,-19,36,49,58,7,29,-126
199,79,-120,-139,160,-20,37,51,58,7,31,-125
200,79,-121,-139,161,-21,37,51,57,7,32,-126
201,79,-122,-140,162,-21,38,53,57,8,33,-126
200,80,-120,-140,160,-20,38,54,57,8,32,-126
199,80,-119,-139,159,-19,39,55,57,8,32,-126
199,80,-119,-139,159,-19,39,56,58,8,31,-125
200,80,-120,-140,160,-20,39,56,60,8,32,-125
202,80,-122,-141,162,-21,38,55,61,8,32,-125
204,80,-124,-142,164,-22,38,56,62,10,33,-125
203,79,-124,-141,164,-22,38,56,63,11,33,-126
204,80,-124,-142,164,-22,39,57,64,14,35,-125
205,80,-125,-142,165,-22,39,57,64,15,36,-124
204,80,-124,-142,164,-22,40,58,66,16,36,-123
203,80,-123,-141,163,-21,40,59,66,15,35,-122
203,81,-122,-142,163,-20,40,60,66,15,36,-122
203,82,-121,-142,162,-19,40,61,65,15,36,-123
204,82,-122,-143,163,-20,40,61,64,16,35,-123
204,83,-121,-143,163,-19,40,61,66,17,36,-122
205,83,-122,-144,164,-19,39,60,68,18,36,-123
206,82,-124,-144,165,-21,39,60,70,19,37,-122
207,81,-126,-144,167,-22,39,60,72,20,38,-122
207,82,-125,-144,166,-21,39,61,73,21,40,-121
206,83,-123,-144,165,-20,40,63,73,23,41,-120
206,84,-122,-145,164,-19,40,65,74,23,41,-119
207,84,-123,-145,165,-19,40,64,74,23,41,-120
207,84,-123,-145,165,-19,40,65,76,24,40,-120
207,84,-123,-145,165,-19,39,66,77,24,40,-120
208,84,-124,-146,166,-20,39,66,78,25,40,-120
208,84,-124,-146,166,-20,39,65,78,26,41,-120
207,85,-122,-146,165,-18,40,65,79,28,43,-119
208,85,-123,-146,166,-19,41,65,80,30,44,-118
"
		208","
		85","
		-123","
		-146","
		166","
		-19","
		42","
		66","
		81","
		31","
		45","
		-116"
209,85,-124,-147,167,-19,41,67,81,31,45,-116
209,86,-123,-147,166,-18,41,68,82,32,46,-115
209,86,-123,-147,166,-18,41,69,82,32,46,-116
209,86,-123,-147,166,-18,41,69,82,32,46,-117
208,86,-122,-147,165,-18,41,69,83,32,45,-117
209,86,-123,-147,166,-18,41,69,84,33,46,-116
210,87,-123,-148,167,-18,40,68,85,34,46,-116
211,88,-123,-149,167,-17,41,70,88,37,48,-114
211,89,-122,-150,167,-16,40,70,89,38,49,-113
211,89,-122,-150,167,-16,40,71,89,39,50,-113
211,89,-122,-150,167,-16,41,71,89,40,50,-112
211,90,-121,-150,166,-15,42,72,90,41,51,-111
211,90,-121,-150,166,-15,42,73,91,42,51,-111
210,91,-119,-150,165,-14,42,74,92,43,51,-112
210,91,-119,-150,165,-14,42,74,93,43,51,-112
211,91,-120,-151,166,-14,42,75,94,44,52,-112
212,92,-120,-152,166,-14,41,74,95,45,53,-112
212,92,-120,-152,166,-14,41,75,96,47,54,-111
212,93,-119,-152,166,-13,41,75,97,49,56,-110
213,93,-120,-153,167,-13,41,75,97,49,56,-108
213,94,-119,-153,166,-12,42,76,99,51,58,-106
214,96,-118,-155,166,-11,42,79,99,52,59,-105
215,97,-118,-156,167,-10,42,80,99,52,60,-105
214,97,-117,-155,166,-10,43,81,101,53,62,-104
214,97,-117,-155,166,-10,42,81,103,53,62,-105
215,97,-118,-156,167,-10,41,80,104,55,61,-105
216,98,-118,-157,167,-10,41,81,107,58,62,-104
217,99,-118,-158,168,-9,41,82,109,60,63,-104
218,100,-118,-159,168,-9,42,83,110,62,65,-104
219,101,-118,-160,169,-8,42,85,111,63,67,-103
218,101,-117,-159,168,-8,42,86,111,63,68,-102
217,101,-116,-159,167,-7,42,86,111,64,69,-101
217,102,-115,-159,166,-6,42,87,111,66,71,-100
218,103,-115,-160,167,-6,42,88,113,67,71,-100
219,104,-115,-161,167,-5,42,90,115,69,73,-99
221,105,-116,-163,169,-5,42,91,116,71,73,-100
223,106,-117,-164,170,-5,42,91,119,73,74,-100
223,107,-116,-165,170,-4,41,91,121,75,75,-99
223,107,-116,-165,170,-4,42,93,123,78,78,-97
224,108,-116,-166,170,-4,42,95,124,80,80,-94
225,109,-116,-167,171,-3,42,96,125,81,81,-93
225,111,-114,-168,170,-1,41,97,126,83,82,-92
225,112,-113,-168,169,0,41,99,127,85,83,-91
225,112,-113,-168,169,0,41,100,129,86,84,-91
225,111,-114,-168,170,-1,41,101,131,87,84,-91
226,112,-114,-169,170,-1,41,102,134,90,86,-89
227,114,-113,-170,170,1,41,103,136,93,88,-88
229,117,-112,-173,171,3,40,104,138,96,90,-87
231,119,-112,-175,172,4,40,106,140,99,93,-85
231,121,-110,-176,171,6,41,108,142,101,95,-83
232,122,-110,-177,171,6,41,109,144,103,97,-82
233,124,-109,-178,171,8,40,110,147,105,99,-81
235,126,-109,-180,172,9,40,112,149,108,102,-79
235,128,-107,-181,171,11,39,115,150,111,104,-77
236,129,-107,-182,172,11,40,117,152,115,107,-76
237,130,-107,-183,172,12,39,117,153,118,109,-75
238,133,-105,-185,172,14,38,118,157,122,112,-73
240,135,-105,-187,173,15,36,119,159,125,114,-71
240,136,-104,-188,172,16,37,121,162,130,119,-68
241,138,-103,-189,172,18,36,122,164,133,122,-66
242,140,-102,-191,172,19,36,123,166,136,124,-64
243,142,-101,-192,172,21,36,124,168,139,126,-62
244,144,-100,-194,172,22,36,126,169,142,129,-61
245,146,-99,-195,172,24,35,127,171,145,131,-59
247,148,-99,-197,173,25,34,127,173,147,133,-58
249,149,-100,-199,175,25,33,128,175,150,135,-56
250,151,-99,-200,175,26,32,127,178,153,138,-54
250,152,-98,-201,174,27,31,127,179,157,140,-52
251,154,-97,-202,174,29,30,127,180,160,143,-50
252,155,-97,-203,175,29,30,129,182,164,146,-47
252,157,-95,-204,174,31,30,130,181,166,147,-47
252,159,-93,-205,173,33,30,130,180,167,149,-46
253,161,-92,-207,173,35,30,131,180,169,151,-45
254,162,-92,-208,173,35,30,132,183,171,154,-43
255,163,-92,-209,174,36,29,131,185,173,155,-42
256,163,-93,-209,175,35,29,131,187,175,157,-41
256,164,-92,-210,174,36,28,130,186,176,158,-41
257,166,-91,-211,174,38,27,129,186,178,159,-40
258,168,-90,-213,174,39,26,128,186,180,161,-38
258,170,-88,-214,173,41,26,128,186,182,163,-35
257,171,-86,-214,172,43,26,128,185,183,165,-34
257,171,-86,-214,172,43,25,128,183,184,166,-33
256,171,-85,-213,171,43,25,127,181,185,167,-33
256,171,-85,-213,171,43,26,126,179,185,166,-33
256,172,-84,-214,170,44,25,124,179,184,165,-34
256,171,-85,-213,171,43,25,122,180,183,164,-35
256,170,-86,-213,171,42,24,120,180,181,163,-37
255,168,-87,-211,171,41,24,117,177,179,162,-38
253,166,-87,-209,170,40,25,116,174,177,160,-39
251,164,-87,-207,169,39,26,114,169,173,157,-40
250,163,-87,-206,169,38,26,111,165,169,154,-41
249,162,-87,-205,168,38,26,107,159,164,149,-44
248,160,-88,-204,168,36,27,104,156,159,145,-46
246,158,-88,-202,167,35,28,102,153,155,141,-49
243,154,-89,-198,166,33,28,99,149,149,136,-52
240,150,-90,-195,165,30,27,96,143,142,130,-56
238,147,-91,-192,165,28,27,92,137,136,126,-59
236,144,-92,-190,164,26,28,89,132,129,121,-63
234,140,-94,-187,164,23,28,86,127,122,117,-66
232,136,-96,-184,164,20,28,82,121,115,112,-68
230,133,-97,-181,164,18,28,79,114,107,107,-71
228,130,-98,-179,163,16,29,76,110,100,102,-75
226,127,-99,-176,163,14,30,74,106,94,97,-78
224,123,-101,-173,163,11,29,71,101,87,91,-82
222,120,-102,-171,162,9,27,67,95,80,85,-86
220,117,-103,-168,162,7,26,64,90,74,81,-90
219,114,-105,-166,162,5,26,60,86,67,76,-94
218,110,-108,-164,163,1,26,58,82,62,71,-97
216,106,-110,-161,163,-2,26,54,78,56,66,-100
214,102,-112,-158,163,-5,26,52,73,52,63,-101
212,100,-112,-156,162,-6,27,50,69,47,61,-102
211,98,-113,-154,162,-7,27,49,65,41,57,-104
209,95,-114,-152,162,-9,27,48,62,35,54,-106
208,92,-116,-150,162,-12,26,46,59,30,50,-108
207,90,-117,-148,162,-13,26,44,56,25,47,-111
207,88,-119,-147,163,-15,26,43,54,22,45,-112
208,87,-121,-147,165,-17,25,40,51,18,42,-115
208,85,-123,-146,166,-19,24,38,49,15,39,-116
206,84,-122,-145,164,-19,24,37,47,13,37,-117
204,81,-123,-142,164,-21,24,35,44,10,35,-119
202,79,-123,-140,163,-22,25,34,43,8,34,-119
203,78,-125,-140,164,-23,25,34,40,5,32,-121
204,77,-127,-140,166,-25,25,35,37,2,31,-122
204,76,-128,-140,166,-26,24,33,34,0,29,-124
203,75,-128,-139,166,-26,24,32,33,-2,28,-124
202,75,-127,-138,165,-26,23,31,32,-4,26,-126
202,74,-128,-138,165,-27,23,31,32,-4,25,-127
202,73,-129,-137,166,-28,23,31,33,-4,25,-126
202,72,-130,-137,166,-29,23,30,31,-5,25,-126
201,72,-129,-136,165,-28,23,28,28,-6,23,-127
200,72,-128,-136,164,-28,24,28,26,-7,23,-127
200,71,-129,-135,165,-29,24,28,24,-8,22,-128
200,70,-130,-135,165,-30,24,28,24,-8,21,-128
200,69,-131,-134,166,-31,25,29,25,-7,22,-127
200,69,-131,-134,166,-31,25,29,27,-7,22,-128
200,69,-131,-134,166,-31,25,28,29,-8,21,-129
201,69,-132,-135,167,-31,24,27,30,-10,20,-130
202,70,-132,-136,167,-31,24,27,30,-11,20,-130
202,70,-132,-136,167,-31,25,27,29,-11,21,-130
202,70,-132,-136,167,-31,24,27,27,-12,21,-131
201,69,-132,-135,167,-31,23,26,25,-12,20,-131
200,68,-132,-134,166,-32,25,28,25,-11,20,-130
200,69,-131,-134,166,-31,25,28,24,-11,20,-129
200,69,-131,-134,166,-31,25,28,23,-11,19,-130
201,69,-132,-135,167,-31,24,28,23,-12,18,-132
201,69,-132,-135,167,-31,24,28,24,-12,18,-132
201,68,-133,-134,167,-32,25,29,26,-11,19,-131
200,67,-133,-133,167,-33,24,28,26,-11,18,-131
200,65,-135,-132,168,-35,24,28,27,-9,20,-130
200,66,-134,-133,167,-34,25,29,26,-8,21,-130
200,67,-133,-133,167,-33,24,29,26,-9,21,-130
200,67,-133,-133,167,-33,25,30,26,-10,20,-130
198,67,-131,-132,165,-32,26,30,27,-10,21,-131
198,66,-132,-132,165,-33,26,30,27,-10,20,-132
201,66,-135,-133,168,-34,25,30,28,-12,19,-132
200,66,-134,-133,167,-34,25,31,29,-11,20,-131
199,66,-133,-132,166,-33,24,30,29,-12,20,-130
199,67,-132,-133,166,-32,25,31,29,-11,20,-130
200,67,-133,-133,167,-33,25,30,28,-10,20,-130
201,68,-133,-134,167,-32,25,30,27,-10,21,-130
201,67,-134,-134,168,-33,26,30,27,-9,21,-131
201,67,-134,-134,168,-33,26,30,29,-9,22,-131
201,67,-134,-134,168,-33,27,31,30,-8,22,-130
201,67,-134,-134,168,-33,26,31,31,-8,22,-130
201,67,-134,-134,168,-33,26,31,32,-9,22,-130
200,68,-132,-134,166,-32,26,31,32,-9,20,-131
199,68,-131,-133,165,-31,26,30,31,-10,19,-132
200,68,-132,-134,166,-32,25,30,30,-10,19,-132
201,69,-132,-135,167,-31,25,29,28,-10,20,-132
201,70,-131,-135,166,-30,25,30,28,-10,21,-131
200,70,-130,-135,165,-30,26,30,27,-11,21,-131
199,69,-130,-134,165,-30,26,31,28,-11,21,-131
199,68,-131,-133,165,-31,26,31,28,-11,20,-132
200,68,-132,-134,166,-32,25,31,29,-10,19,-132
200,68,-132,-134,166,-32,26,31,31,-9,19,-131
200,69,-131,-134,166,-31,26,32,32,-9,20,-131
200,69,-131,-134,166,-31,26,31,32,-8,20,-131
199,69,-130,-134,165,-30,26,31,32,-8,21,-131
199,68,-131,-133,165,-31,26,31,32,-8,21,-130
200,68,-132,-134,166,-32,26,31,31,-8,22,-129
201,69,-132,-135,167,-31,26,31,30,-8,23,-130
201,70,-131,-135,166,-30,28,32,29,-8,23,-129
201,70,-131,-135,166,-30,28,32,28,-8,24,-128
202,70,-132,-136,167,-31,28,32,28,-9,23,-128
201,70,-131,-135,166,-30,27,31,27,-9,22,-129
199,69,-130,-134,165,-30,27,31,28,-10,22,-129
199,67,-132,-133,166,-32,26,31,29,-10,22,-128
200,68,-132,-134,166,-32,26,30,29,-10,22,-129
201,69,-132,-135,167,-31,27,29,28,-10,21,-130
201,69,-132,-135,167,-31,26,29,28,-10,21,-131
200,68,-132,-134,166,-32,26,30,28,-9,22,-130
201,70,-131,-135,166,-30,26,30,27,-10,22,-131
202,71,-131,-136,167,-30,27,31,26,-11,21,-131
203,72,-131,-137,167,-29,27,30,27,-11,21,-130
203,71,-132,-137,168,-30,26,29,27,-11,20,-130
203,70,-133,-136,168,-31,26,29,27,-11,20,-131
202,70,-132,-136,167,-31,26,30,27,-10,20,-130
201,70,-131,-135,166,-30,25,29,27,-10,20,-130
202,69,-133,-135,168,-32,26,28,27,-11,21,-130
204,69,-135,-136,170,-33,25,28,27,-12,20,-132
204,70,-134,-137,169,-32,25,28,27,-12,20,-132
202,70,-132,-136,167,-31,26,29,25,-12,20,-132
202,69,-133,-135,168,-32,25,28,22,-14,19,-132
202,68,-134,-135,168,-33,25,28,21,-13,19,-131
203,69,-134,-136,169,-32,25,29,21,-12,20,-130
203,69,-134,-136,169,-32,26,29,21,-12,20,-129
203,68,-135,-135,169,-33,25,28,22,-13,20,-130
203,68,-135,-135,169,-33,25,27,23,-13,20,-131
203,68,-135,-135,169,-33,24,27,24,-13,19,-131
203,68,-135,-135,169,-33,24,26,24,-13,19,-131
202,68,-134,-135,168,-33,24,26,23,-14,20,-131
203,68,-135,-135,169,-33,24,27,23,-14,20,-131
203,68,-135,-135,169,-33,24,28,24,-15,19,-132
203,69,-134,-136,169,-32,24,28,24,-16,19,-132
202,68,-134,-135,168,-33,24,28,24,-17,18,-133
201,67,-134,-134,168,-33,25,28,23,-17,18,-133
201,67,-134,-134,168,-33,24,26,21,-17,18,-134
201,67,-134,-134,168,-33,24,26,20,-17,18,-134
201,68,-133,-134,167,-32,25,26,19,-16,18,-133
200,68,-132,-134,166,-32,25,25,18,-16,18,-133
201,68,-133,-134,167,-32,25,26,20,-16,18,-133
202,68,-134,-135,168,-33,24,26,21,-17,17,-135
201,68,-133,-134,167,-32,24,27,23,-17,17,-135
200,68,-132,-134,166,-32,24,26,23,-16,16,-135
202,69,-133,-135,168,-32,24,26,21,-17,17,-136
203,69,-134,-136,169,-32,25,27,20,-17,18,-135
203,70,-133,-136,168,-31,23,25,17,-18,17,-135
202,70,-132,-136,167,-31,23,24,17,-18,18,-134
202,69,-133,-135,168,-32,24,24,18,-17,18,-133
201,69,-132,-135,167,-31,25,25,20,-16,19,-132
201,69,-132,-135,167,-31,25,26,22,-15,19,-131
200,68,-132,-134,166,-32,25,27,22,-14,19,-131
200,68,-132,-134,166,-32,25,26,20,-15,18,-131
200,68,-132,-134,166,-32,26,26,19,-16,18,-132
199,68,-131,-133,165,-31,25,26,19,-18,17,-133
199,67,-132,-133,166,-32,26,27,21,-18,18,-132
201,67,-134,-134,168,-33,26,26,20,-19,17,-133
203,67,-136,-135,170,-34,26,25,20,-20,16,-133
203,68,-135,-135,169,-33,26,25,21,-19,17,-133
202,69,-133,-135,168,-32,25,25,20,-19,16,-133
201,67,-134,-134,168,-33,25,24,19,-19,16,-134
200,65,-135,-132,168,-35,26,24,18,-20,15,-134
200,66,-134,-133,167,-34,26,25,18,-20,16,-134
200,67,-133,-133,167,-33,25,25,17,-21,16,-134
200,67,-133,-133,167,-33,25,24,18,-20,16,-134
201,67,-134,-134,168,-33,25,24,18,-19,17,-134
201,66,-135,-133,168,-34,25,24,18,-18,17,-133
201,66,-135,-133,168,-34,25,24,18,-19,17,-134
201,65,-136,-133,169,-35,26,25,20,-17,17,-132
202,66,-136,-134,169,-35,25,25,20,-18,17,-132
202,66,-136,-134,169,-35,26,25,21,-18,17,-132
202,66,-136,-134,169,-35,25,25,20,-18,17,-133
202,65,-137,-133,170,-36,25,25,19,-19,16,-133
201,66,-135,-133,168,-34,26,26,17,-20,16,-134
201,67,-134,-134,168,-33,26,26,18,-20,16,-135
201,68,-133,-134,167,-32,26,26,18,-20,16,-135
202,68,-134,-135,168,-33,24,24,17,-21,14,-136
202,67,-135,-134,169,-34,26,25,18,-20,16,-134
202,66,-136,-134,169,-35,26,24,17,-20,16,-133
201,65,-136,-133,169,-35,27,25,18,-18,18,-132
201,65,-136,-133,169,-35,26,25,18,-19,17,-134
200,64,-136,-132,168,-36,27,26,18,-20,16,-135
201,64,-137,-132,169,-36,28,27,18,-19,16,-135
201,64,-137,-132,169,-36,28,27,20,-19,17,-134
201,65,-136,-133,169,-35,28,27,21,-19,17,-135
201,65,-136,-133,169,-35,28,27,21,-18,17,-135
201,65,-136,-133,169,-35,28,27,19,-18,17,-135
200,65,-135,-132,168,-35,29,26,18,-18,17,-136
199,64,-135,-131,167,-35,29,26,17,-18,18,-135
200,64,-136,-132,168,-36,28,25,15,-19,18,-135
201,65,-136,-133,169,-35,28,26,16,-18,18,-134
201,65,-136,-133,169,-35,29,27,18,-18,18,-133
201,66,-135,-133,168,-34,27,26,19,-19,17,-134
201,65,-136,-133,169,-35,28,27,21,-18,18,-133
201,65,-136,-133,169,-35,28,27,21,-18,17,-133
202,65,-137,-133,170,-36,27,26,19,-19,17,-134
202,65,-137,-133,170,-36,27,26,18,-19,17,-133
202,65,-137,-133,170,-36,27,25,17,-19,17,-133
202,66,-136,-134,169,-35,27,25,15,-19,17,-133
202,66,-136,-134,169,-35,27,25,13,-19,17,-133
202,66,-136,-134,169,-35,27,26,13,-19,17,-134
202,66,-136,-134,169,-35,27,26,15,-19,17,-134
202,65,-137,-133,170,-36,27,27,18,-19,18,-135
202,65,-137,-133,170,-36,28,26,19,-19,18,-135
202,64,-138,-133,170,-37,29,27,20,-18,18,-134
201,64,-137,-132,169,-36,28,26,19,-18,17,-135
201,65,-136,-133,169,-35,26,26,19,-19,17,-135
202,66,-136,-134,169,-35,26,25,20,-19,17,-135
202,66,-136,-134,169,-35,27,25,21,-19,17,-134
202,65,-137,-133,170,-36,27,25,20,-20,16,-134
201,65,-136,-133,169,-35,27,26,19,-20,17,-134
201,66,-135,-133,168,-34,26,26,17,-21,16,-135
202,66,-136,-134,169,-35,27,26,17,-20,17,-136
202,67,-135,-134,169,-34,29,27,18,-19,17,-136
203,68,-135,-135,169,-33,28,26,18,-20,16,-137
203,68,-135,-135,169,-33,28,26,19,-20,15,-137
202,68,-134,-135,168,-33,26,25,19,-21,15,-137
202,67,-135,-134,169,-34,25,25,20,-21,16,-136
201,67,-134,-134,168,-33,25,24,20,-21,16,-136
"
		201","
		67","
		-134","
		-134","
		168","
		-33","
		26","
		24","
		19","
		-20","
		16","
		-135"
201,67,-134,-134,168,-33,27,26,18,-20,16,-134
201,68,-133,-134,167,-32,26,26,17,-21,15,-134
202,68,-134,-135,168,-33,25,25,16,-23,14,-135
202,68,-134,-135,168,-33,25,25,17,-23,15,-135
202,68,-134,-135,168,-33,25,25,17,-24,15,-135
202,68,-134,-135,168,-33,25,25,17,-24,15,-135
202,68,-134,-135,168,-33,25,25,16,-25,14,-136
203,68,-135,-135,169,-33,25,24,16,-25,14,-135
203,68,-135,-135,169,-33,26,24,17,-24,15,-135
203,68,-135,-135,169,-33,26,24,18,-23,17,-134
203,68,-135,-135,169,-33,27,25,19,-22,18,-133
204,68,-136,-136,170,-34,27,26,19,-21,18,-133
204,67,-137,-135,171,-35,27,26,19,-20,18,-133
204,67,-137,-135,171,-35,27,26,20,-21,18,-133
204,66,-138,-135,171,-36,27,25,20,-21,18,-134
204,67,-137,-135,171,-35,27,24,20,-22,17,-135
203,67,-136,-135,170,-34,27,24,19,-23,16,-135
202,67,-135,-134,169,-34,28,25,20,-23,17,-134
203,66,-137,-134,170,-35,28,25,20,-22,17,-134
203,67,-136,-135,170,-34,27,24,18,-23,16,-135
203,67,-136,-135,170,-34,27,24,17,-23,16,-135
203,67,-136,-135,170,-34,26,24,16,-23,16,-135
203,67,-136,-135,170,-34,26,24,16,-23,15,-135
203,67,-136,-135,170,-34,26,25,16,-23,15,-136
203,68,-135,-135,169,-33,26,24,16,-23,15,-135
204,69,-135,-136,170,-33,26,23,16,-23,14,-135
204,69,-135,-136,170,-33,27,22,17,-23,15,-135
203,70,-133,-136,168,-31,28,22,18,-23,15,-135
204,71,-133,-137,169,-31,28,23,19,-24,15,-135
204,71,-133,-137,169,-31,28,24,19,-24,15,-135
204,70,-134,-137,169,-32,28,24,17,-25,15,-134
204,70,-134,-137,169,-32,28,25,14,-25,16,-134
204,70,-134,-137,169,-32,28,25,12,-25,16,-134
204,69,-135,-136,170,-33,27,25,10,-25,15,-134
205,68,-137,-136,171,-34,27,25,12,-24,15,-134
206,68,-138,-137,172,-35,26,24,14,-24,15,-133
205,68,-137,-136,171,-34,26,24,16,-23,16,-133
205,69,-136,-137,171,-33,26,24,18,-22,17,-133
206,69,-137,-137,172,-34,26,24,19,-22,17,-133
207,69,-138,-138,173,-34,26,22,17,-24,15,-134
207,69,-138,-138,173,-34,25,22,17,-24,15,-135
206,69,-137,-137,172,-34,26,23,17,-24,15,-135
206,69,-137,-137,172,-34,26,23,16,-25,14,-135
207,70,-137,-138,172,-33,27,23,15,-24,14,-136
207,71,-136,-139,172,-32,27,24,15,-23,15,-135
206,71,-135,-138,171,-32,26,23,15,-23,15,-136
205,71,-134,-138,170,-31,25,23,15,-24,14,-137
205,70,-135,-137,170,-32,26,23,16,-24,14,-136
206,70,-136,-138,171,-33,25,22,15,-24,14,-137
208,70,-138,-139,173,-34,25,23,16,-23,15,-136
208,71,-137,-139,173,-33,25,24,15,-24,14,-136
208,71,-137,-139,173,-33,25,24,14,-24,14,-136
208,70,-138,-139,173,-34,26,25,15,-24,15,-135
208,70,-138,-139,173,-34,25,24,14,-24,15,-135
207,69,-138,-138,173,-34,25,24,14,-24,15,-135
207,69,-138,-138,173,-34,25,24,14,-24,16,-135
208,69,-139,-138,174,-35,26,24,15,-23,16,-135
209,69,-140,-139,175,-35,26,24,16,-22,17,-134
209,69,-140,-139,175,-35,27,23,16,-23,17,-134
209,69,-140,-139,175,-35,26,23,15,-24,17,-136
208,69,-139,-138,174,-35,25,23,14,-25,16,-138
207,70,-137,-138,172,-33,26,24,14,-25,16,-137
207,71,-136,-139,172,-32,27,24,14,-24,16,-136
207,71,-136,-139,172,-32,27,25,14,-23,17,-136
208,72,-136,-140,172,-32,26,24,14,-24,15,-137
208,72,-136,-140,172,-32,26,24,15,-24,15,-137
208,72,-136,-140,172,-32,26,24,14,-24,15,-135
208,72,-136,-140,172,-32,26,24,14,-24,15,-136
208,71,-137,-139,173,-33,26,23,12,-24,14,-137
207,71,-136,-139,172,-32,26,23,12,-24,14,-137
207,71,-136,-139,172,-32,25,23,11,-24,14,-137
208,71,-137,-139,173,-33,24,22,11,-25,13,-138
208,71,-137,-139,173,-33,24,23,11,-25,13,-138
209,71,-138,-140,174,-33,24,23,12,-25,14,-138
209,71,-138,-140,174,-33,24,23,12,-25,14,-138
209,71,-138,-140,174,-33,25,22,12,-25,14,-138
209,71,-138,-140,174,-33,25,22,13,-25,15,-137
209,70,-139,-139,174,-34,25,22,14,-25,15,-137
210,70,-140,-140,175,-35,26,22,14,-24,15,-137
210,70,-140,-140,175,-35,26,23,13,-24,16,-137
211,70,-141,-140,176,-35,26,24,13,-23,16,-137
211,71,-140,-141,176,-34,24,23,11,-24,15,-138
210,71,-139,-140,175,-34,24,24,12,-24,16,-138
208,71,-137,-139,173,-33,23,23,11,-25,15,-138
209,72,-137,-140,173,-32,23,23,13,-26,14,-138
210,72,-138,-141,174,-33,22,22,13,-27,13,-139
210,72,-138,-141,174,-33,23,22,12,-27,13,-140
210,72,-138,-141,174,-33,23,22,11,-27,13,-140
210,72,-138,-141,174,-33,23,23,11,-26,14,-139
209,73,-136,-141,173,-31,24,24,11,-24,15,-138
209,73,-136,-141,173,-31,24,24,12,-24,15,-138
210,73,-137,-141,174,-32,24,24,13,-24,15,-138
210,74,-136,-142,173,-31,24,25,14,-24,15,-139
209,73,-136,-141,173,-31,24,24,15,-24,14,-140
208,73,-135,-140,172,-31,25,24,15,-26,15,-139
208,73,-135,-140,172,-31,24,24,14,-26,16,-138
209,73,-136,-141,173,-31,23,23,10,-26,15,-138
209,72,-137,-140,173,-32,23,23,8,-25,16,-138
208,73,-135,-140,172,-31,23,23,7,-24,15,-138
209,73,-136,-141,173,-31,23,23,9,-25,15,-138
209,72,-137,-140,173,-32,24,25,12,-24,17,-138
209,71,-138,-140,174,-33,24,26,12,-24,16,-139
208,71,-137,-139,173,-33,23,25,12,-24,15,-139
208,72,-136,-140,172,-32,23,25,11,-25,15,-139
209,73,-136,-141,173,-31,23,24,12,-25,15,-139
209,73,-136,-141,173,-31,23,24,14,-24,15,-139
209,73,-136,-141,173,-31,23,24,14,-24,15,-141
209,72,-137,-140,173,-32,23,24,14,-24,16,-141
210,73,-137,-141,174,-32,23,24,13,-25,15,-140
210,73,-137,-141,174,-32,24,24,13,-24,16,-138
209,74,-135,-141,172,-30,23,24,12,-24,16,-138
210,75,-135,-142,173,-30,22,23,11,-25,16,-139
210,75,-135,-142,173,-30,22,24,11,-26,15,-139
210,75,-135,-142,173,-30,23,24,12,-26,15,-140
210,75,-135,-142,173,-30,23,24,12,-26,14,-141
210,74,-136,-142,173,-31,24,25,13,-25,15,-140
210,74,-136,-142,173,-31,25,25,13,-25,14,-140
210,74,-136,-142,173,-31,24,24,13,-25,14,-140
210,74,-136,-142,173,-31,24,24,13,-25,14,-140
211,75,-136,-143,174,-30,22,24,11,-25,15,-139
210,75,-135,-142,173,-30,22,24,11,-25,15,-139
208,75,-133,-141,171,-29,23,24,11,-25,15,-138
209,75,-134,-142,172,-29,23,25,12,-25,16,-138
210,75,-135,-142,173,-30,23,25,11,-26,15,-138
211,75,-136,-143,174,-30,23,26,11,-26,15,-138
210,75,-135,-142,173,-30,23,26,11,-27,15,-139
210,75,-135,-142,173,-30,23,25,11,-27,15,-139
210,75,-135,-142,173,-30,23,25,11,-26,15,-139
211,75,-136,-143,174,-30,24,24,11,-26,14,-139
210,75,-135,-142,173,-30,24,24,11,-26,14,-140
209,74,-135,-141,172,-30,25,25,12,-25,14,-140
210,73,-137,-141,174,-32,24,26,12,-26,13,-141
211,73,-138,-142,175,-32,24,26,12,-26,13,-141
211,74,-137,-142,174,-31,23,25,11,-27,13,-142
212,74,-138,-143,175,-32,24,25,11,-28,13,-142
212,74,-138,-143,175,-32,24,25,12,-28,13,-141
212,75,-137,-143,175,-31,23,25,13,-27,14,-139
212,75,-137,-143,175,-31,24,25,13,-26,15,-137
212,76,-136,-144,174,-30,24,24,12,-27,15,-137
213,76,-137,-144,175,-30,24,24,12,-27,15,-138
214,76,-138,-145,176,-31,23,24,11,-26,14,-138
214,76,-138,-145,176,-31,24,24,11,-26,15,-138
214,76,-138,-145,176,-31,25,24,10,-26,15,-137
213,77,-136,-145,175,-29,25,24,10,-26,15,-137
212,76,-136,-144,174,-30,24,23,10,-28,14,-139
211,76,-135,-143,173,-29,25,23,11,-28,13,-139
211,75,-136,-143,174,-30,25,24,11,-27,14,-139
212,75,-137,-143,175,-31,25,24,12,-26,15,-138
212,75,-137,-143,175,-31,25,24,13,-25,15,-139
213,75,-138,-144,176,-31,25,23,12,-25,15,-139
214,76,-138,-145,176,-31,25,24,11,-23,15,-138
214,77,-137,-145,176,-30,25,23,10,-24,14,-139
214,77,-137,-145,176,-30,25,23,10,-25,14,-140
213,76,-137,-144,175,-30,25,24,11,-25,15,-139
213,76,-137,-144,175,-30,25,23,11,-27,14,-140
213,76,-137,-144,175,-30,25,24,11,-28,13,-140
213,76,-137,-144,175,-30,25,24,11,-28,13,-140
213,76,-137,-144,175,-30,25,24,12,-27,13,-140
214,77,-137,-145,176,-30,24,24,12,-26,14,-141
214,78,-136,-146,175,-29,25,24,11,-25,15,-140
213,78,-135,-145,174,-28,25,24,10,-26,14,-141
213,77,-136,-145,175,-29,26,25,10,-26,14,-140
214,78,-136,-146,175,-29,25,24,9,-26,14,-140
214,79,-135,-146,175,-28,25,25,9,-25,15,-140
215,79,-136,-147,176,-28,25,24,9,-26,14,-140
216,80,-136,-148,176,-28,25,25,12,-24,16,-139
217,80,-137,-148,177,-28,24,24,13,-24,16,-139
216,80,-136,-148,176,-28,24,23,12,-24,16,-140
215,79,-136,-147,176,-28,23,22,10,-25,14,-142
213,79,-134,-146,174,-27,24,23,10,-25,15,-142
213,79,-134,-146,174,-27,25,24,10,-25,15,-142
214,80,-134,-147,174,-27,24,24,10,-26,13,-143
214,79,-135,-146,175,-28,25,24,10,-27,13,-142
213,76,-137,-144,175,-30,25,25,11,-27,13,-142
213,75,-138,-144,176,-31,24,25,10,-28,11,-143
215,75,-140,-145,178,-32,24,26,11,-26,12,-143
217,75,-142,-146,180,-33,25,25,10,-26,12,-144
217,75,-142,-146,180,-33,27,26,10,-26,12,-143
217,77,-140,-147,179,-31,27,27,10,-26,12,-143
218,78,-140,-148,179,-31,29,30,13,-24,14,-141
219,79,-140,-149,180,-30,30,32,14,-24,15,-142
220,79,-141,-149,181,-31,30,34,15,-24,16,-142
221,79,-142,-150,182,-31,28,33,14,-25,15,-144
221,79,-142,-150,182,-31,29,34,15,-24,15,-144
222,79,-143,-150,183,-32,29,34,17,-23,16,-143
222,79,-143,-150,183,-32,29,34,17,-22,16,-141
221,79,-142,-150,182,-31,28,34,18,-21,17,-141
219,79,-140,-149,180,-30,29,35,18,-20,18,-140
219,79,-140,-149,180,-30,29,35,17,-19,19,-139
221,78,-143,-149,182,-32,29,34,16,-19,20,-138
223,78,-145,-150,184,-33,27,33,15,-21,19,-139
224,79,-145,-151,185,-33,25,32,15,-23,17,-141
223,78,-145,-150,184,-33,28,35,17,-22,18,-140
223,78,-145,-150,184,-33,30,37,18,-20,18,-141
223,78,-145,-150,184,-33,31,38,19,-20,18,-141
223,78,-145,-150,184,-33,33,38,20,-20,18,-141
223,80,-143,-151,183,-31,32,36,20,-21,18,-141
224,82,-142,-153,183,-30,31,34,19,-22,17,-140
224,83,-141,-153,183,-29,31,34,18,-22,17,-139
224,83,-141,-153,183,-29,30,33,16,-23,17,-139
224,83,-141,-153,183,-29,29,33,13,-24,16,-140
224,83,-141,-153,183,-29,27,33,13,-25,16,-141
225,83,-142,-154,184,-29,26,32,14,-24,16,-142
223,83,-140,-153,182,-28,25,29,15,-24,15,-143
221,82,-139,-151,180,-28,23,27,13,-26,15,-144
222,81,-141,-151,182,-30,20,25,11,-26,15,-143
223,81,-142,-152,183,-30,21,26,12,-24,17,-141
224,82,-142,-153,183,-30,21,25,11,-23,17,-140
224,83,-141,-153,183,-29,21,25,9,-23,17,-138
223,83,-140,-153,182,-28,20,24,7,-25,16,-139
222,84,-138,-153,180,-27,20,24,6,-27,15,-141
224,85,-139,-154,182,-27,21,24,7,-27,15,-141
227,86,-141,-156,184,-27,21,25,8,-27,14,-141
227,87,-140,-157,184,-26,22,25,9,-27,14,-142
227,86,-141,-156,184,-27,22,25,9,-28,14,-142
227,85,-142,-156,185,-28,22,24,9,-28,14,-141
226,83,-143,-154,185,-30,22,24,8,-28,15,-141
225,81,-144,-153,185,-31,22,24,7,-28,14,-141
224,80,-144,-152,184,-32,22,23,7,-27,14,-141
223,80,-143,-151,183,-31,22,23,7,-27,15,-142
222,80,-142,-151,182,-31,22,23,7,-26,16,-142
220,80,-140,-150,180,-30,22,22,7,-28,14,-143
217,79,-138,-148,178,-29,24,24,9,-28,14,-142
215,81,-134,-148,175,-26,24,25,9,-29,12,-143
214,82,-132,-148,173,-25,25,25,9,-29,12,-143
214,82,-132,-148,173,-25,25,24,8,-29,12,-143
214,83,-131,-148,173,-24,24,23,7,-30,11,-144
215,85,-130,-150,173,-22,25,23,8,-30,11,-144
217,86,-131,-151,174,-22,25,23,9,-30,11,-144
217,85,-132,-151,175,-23,26,24,11,-28,13,-143
217,85,-132,-151,175,-23,25,24,10,-29,13,-144
216,85,-131,-150,174,-23,24,23,8,-29,12,-145
215,85,-130,-150,173,-22,23,23,7,-28,13,-144
216,84,-132,-150,174,-24,24,23,5,-28,14,-142
216,84,-132,-150,174,-24,24,23,6,-28,14,-141
216,83,-133,-149,175,-25,24,24,9,-27,15,-140
216,83,-133,-149,175,-25,23,24,10,-26,16,-140
217,82,-135,-149,176,-26,24,24,10,-26,16,-140
218,82,-136,-150,177,-27,23,24,10,-26,16,-141
218,83,-135,-150,177,-26,23,25,11,-26,15,-142
218,83,-135,-150,177,-26,23,25,11,-25,15,-142
218,84,-134,-151,176,-25,24,23,11,-26,14,-142
218,83,-135,-150,177,-26,24,23,11,-26,14,-142
217,83,-134,-150,176,-25,24,23,10,-27,14,-143
216,84,-132,-150,174,-24,24,23,9,-28,13,-143
217,85,-132,-151,175,-23,24,24,9,-27,14,-143
218,85,-133,-151,176,-24,23,23,8,-27,13,-143
218,86,-132,-152,175,-23,23,23,8,-27,12,-144
218,86,-132,-152,175,-23,23,24,11,-27,13,-145
217,86,-131,-151,174,-22,24,24,13,-26,14,-145
216,86,-130,-151,173,-22,25,24,14,-27,15,-144
215,86,-129,-150,172,-21,25,24,13,-28,15,-144
216,86,-130,-151,173,-22,25,25,13,-27,14,-143
216,87,-129,-151,173,-21,24,25,12,-28,14,-144
215,86,-129,-150,172,-21,27,28,13,-26,14,-144
215,86,-129,-150,172,-21,29,31,16,-24,13,-146
215,84,-131,-149,173,-23,32,35,20,-24,12,-147
215,82,-133,-148,174,-25,33,37,23,-25,10,-150
214,80,-134,-147,174,-27,37,42,30,-21,9,-152
216,78,-138,-147,177,-30,40,48,36,-15,9,-154
218,78,-140,-148,179,-31,43,52,41,-9,9,-154
217,79,-138,-148,178,-29,44,53,46,-1,12,-152
220,80,-140,-150,180,-30,43,53,51,8,17,-149
225,83,-142,-154,184,-29,44,57,59,20,25,-144
229,86,-143,-157,186,-28,43,62,67,31,33,-140
233,88,-145,-160,189,-28,44,69,77,45,44,-134
239,91,-148,-165,194,-28,47,79,90,63,56,-128
246,98,-148,-172,197,-25,52,92,109,84,72,-119
251,109,-142,-180,197,-16,55,105,132,112,91,-109
257,124,-133,-190,195,-4,57,115,153,144,117,-93
264,142,-122,-203,193,10,53,116,168,178,146,-72
271,166,-105,-218,188,31,39,101,175,213,180,-47
281,197,-84,-239,183,57,15,72,171,254,217,-19
293,232,-61,-262,177,86,-17,32,157,299,259,12
304,265,-39,-284,172,113,-52,-14,127,340,298,40
310,286,-24,-298,167,131,-84,-58,89,372,328,60
307,293,-14,-300,161,140,-104,-91,60,401,348,71
295,290,-5,-292,150,143,-110,-117,45,426,355,72
276,281,5,-278,136,143,-108,-143,28,435,348,65
256,265,9,-260,124,137,-103,-165,1,411,323,48
237,241,4,-239,117,123,-93,-171,-29,346,275,20
218,210,-8,-214,113,101,-81,-165,-65,241,208,-17
197,181,-16,-189,107,83,-71,-159,-111,112,133,-57
176,154,-22,-165,99,66,-56,-146,-147,-2,65,-94
160,128,-32,-144,96,48,-37,-125,-161,-81,11,-126
153,109,-44,-131,99,33,-26,-107,-161,-118,-22,-148
155,99,-56,-127,106,22,-25,-100,-160,-126,-33,-158
160,96,-64,-128,112,16,-30,-98,-158,-121,-34,-162
164,93,-71,-128,118,11,-36,-96,-156,-116,-32,-163
168,89,-79,-128,124,5,-42,-96,-156,-117,-32,-166
174,85,-89,-129,132,-2,-47,-92,-152,-114,-30,-167
182,83,-99,-132,141,-8,-48,-82,-137,-104,-26,-166
189,81,-108,-135,149,-13,-43,-67,-117,-93,-22,-165
196,78,-118,-137,157,-20,-34,-51,-98,-84,-18,-164
201,73,-128,-137,165,-27,-26,-35,-82,-76,-14,-163
204,69,-135,-136,170,-33,-20,-24,-67,-68,-10,-161
207,66,-141,-136,174,-37,-11,-15,-52,-60,-6,-158
211,66,-145,-138,178,-39,-1,-4,-35,-50,1,-155
215,66,-149,-140,182,-41,10,10,-19,-38,8,-151
"
		218","
		70","
		-148","
		-144","
		183","
		-39","
		17","
		18","
		-5","
		-28","
		14","
		-148"
220,77,-143,-148,182,-33,23,25,7,-19,20,-144
223,84,-139,-153,181,-27,28,34,17,-10,25,-139
225,90,-135,-157,180,-22,31,42,26,-4,29,-135
226,96,-130,-161,178,-17,32,47,35,2,34,-130
226,102,-124,-164,175,-11,32,48,42,7,37,-127
226,105,-121,-165,174,-8,32,48,47,10,38,-127
225,105,-120,-165,173,-7,33,48,49,10,38,-127
225,105,-120,-165,173,-7,34,49,51,10,38,-127
227,106,-121,-166,174,-7,34,50,52,11,38,-127
228,107,-121,-167,175,-7,34,51,53,12,38,-126
228,108,-120,-168,174,-6,34,50,52,11,37,-127
227,109,-118,-168,173,-4,34,50,51,11,37,-127
227,110,-117,-168,172,-3,35,51,52,11,37,-128
228,109,-119,-168,174,-5,37,52,52,11,37,-127
228,108,-120,-168,174,-6,37,53,53,11,37,-127
228,109,-119,-168,174,-5,37,54,54,11,37,-127
229,109,-120,-169,175,-5,37,54,55,12,38,-128
229,109,-120,-169,175,-5,37,54,56,12,38,-128
229,109,-120,-169,175,-5,37,54,59,14,40,-127
229,110,-119,-169,174,-4,36,53,61,16,41,-126
229,109,-120,-169,175,-5,37,55,64,19,43,-124
230,109,-121,-169,176,-6,37,55,64,19,43,-124
232,112,-120,-172,176,-4,37,56,65,19,43,-123
233,114,-119,-173,176,-2,37,57,64,18,42,-123
232,114,-118,-173,175,-2,38,57,64,17,41,-125
230,113,-117,-171,174,-2,39,57,64,16,41,-125
232,114,-118,-173,175,-2,39,57,65,16,41,-125
233,115,-118,-174,176,-1,38,57,65,17,42,-124
234,115,-119,-174,177,-2,38,56,65,20,43,-124
233,114,-119,-173,176,-2,39,57,66,23,45,-122
233,114,-119,-173,176,-2,38,58,66,25,47,-121
233,113,-120,-173,177,-3,38,58,67,26,48,-121
234,112,-122,-173,178,-5,38,59,68,26,48,-121
234,113,-121,-173,178,-4,39,61,70,27,50,-120
236,114,-122,-175,179,-4,38,61,71,27,50,-120
236,114,-122,-175,179,-4,39,61,72,28,49,-121
235,115,-120,-175,178,-2,38,61,72,29,48,-121
234,115,-119,-174,177,-2,38,61,75,29,49,-121
236,115,-121,-175,179,-3,38,61,76,29,49,-121
237,117,-120,-177,179,-1,37,60,76,30,50,-121
237,118,-119,-177,178,0,38,61,77,32,52,-120
237,118,-119,-177,178,0,39,62,76,33,53,-119
238,119,-119,-178,179,0,39,63,74,34,53,-119
239,121,-118,-180,179,2,39,63,73,34,53,-119
240,122,-118,-181,179,2,40,64,75,36,55,-117
241,123,-118,-182,180,3,39,64,78,36,55,-117
241,122,-119,-181,180,2,39,64,81,37,56,-117
241,121,-120,-181,181,1,39,64,84,39,56,-117
240,120,-120,-180,180,0,38,63,85,39,55,-119
241,120,-121,-180,181,0,37,63,85,39,56,-119
241,121,-120,-181,181,1,37,64,85,42,58,-117
242,122,-120,-182,181,1,37,64,86,43,59,-116
241,123,-118,-182,180,3,38,66,88,45,60,-115
241,123,-118,-182,180,3,39,67,89,45,60,-114
241,122,-119,-181,180,2,39,68,89,45,59,-113
241,123,-118,-182,180,3,39,68,91,46,59,-112
241,125,-116,-183,179,5,39,68,93,46,60,-113
242,126,-116,-184,179,5,39,69,94,47,60,-113
243,127,-116,-185,180,6,37,67,93,47,59,-114
243,128,-115,-185,179,7,38,68,94,49,61,-112
243,130,-113,-186,178,9,38,68,94,52,64,-112
243,130,-113,-186,178,9,39,69,93,53,65,-110
244,129,-115,-186,180,7,39,70,93,54,66,-109
245,130,-115,-187,180,8,39,70,94,54,66,-110
245,130,-115,-187,180,8,39,71,96,56,67,-110
245,129,-116,-187,181,7,40,73,99,58,68,-110
246,129,-117,-187,182,6,39,73,101,59,69,-109
247,130,-117,-188,182,7,39,74,103,61,70,-107
248,131,-117,-189,183,7,38,74,105,63,71,-107
248,133,-115,-190,182,9,37,74,106,65,73,-105
249,134,-115,-191,182,10,38,75,108,68,76,-103
251,135,-116,-193,184,10,37,76,108,69,77,-103
252,135,-117,-193,185,9,37,76,107,69,77,-103
251,137,-114,-194,183,12,38,77,109,71,78,-102
250,138,-112,-194,181,13,38,78,111,72,79,-101
251,138,-113,-194,182,13,39,79,113,74,81,-100
252,139,-113,-195,183,13,38,79,115,74,81,-101
252,140,-112,-196,182,14,39,79,116,76,82,-100
252,141,-111,-196,182,15,38,78,116,76,82,-99
252,143,-109,-197,181,17,38,79,117,78,85,-98
253,144,-109,-198,181,18,36,80,116,80,87,-97
254,146,-108,-200,181,19,35,80,115,83,89,-95
255,147,-108,-201,182,20,35,82,116,85,91,-94
255,148,-107,-201,181,21,36,84,119,88,94,-91
255,149,-106,-202,181,22,37,86,122,91,96,-90
256,150,-106,-203,181,22,36,87,125,92,97,-89
258,151,-107,-204,183,22,36,87,128,93,99,-88
259,152,-107,-205,183,23,35,87,131,96,101,-88
260,153,-107,-206,184,23,35,88,134,100,104,-87
260,154,-106,-207,183,24,35,89,136,104,106,-87
260,156,-104,-208,182,26,36,91,139,108,109,-85
263,158,-105,-210,184,27,35,92,140,111,110,-83
265,161,-104,-213,185,29,34,93,140,113,111,-82
266,163,-103,-214,185,30,34,95,141,115,113,-79
267,164,-103,-215,185,31,35,96,142,118,116,-77
267,164,-103,-215,185,31,34,96,144,121,118,-75
267,164,-103,-215,185,31,33,96,147,124,120,-74
268,167,-101,-217,185,33,32,97,150,127,123,-72
271,169,-102,-220,187,34,33,99,153,131,127,-69
273,172,-101,-222,187,36,31,99,154,133,130,-68
274,174,-100,-224,187,37,31,99,155,137,133,-66
274,176,-98,-225,186,39,30,100,156,140,135,-65
274,178,-96,-226,185,41,30,102,158,144,138,-63
275,180,-95,-227,185,43,30,103,160,146,140,-62
275,183,-92,-229,184,46,29,103,161,149,142,-60
277,185,-92,-231,185,47,28,102,161,151,144,-60
279,187,-92,-233,186,48,27,103,163,154,147,-58
280,189,-91,-234,186,49,27,103,164,157,150,-55
282,191,-91,-236,187,50,26,103,165,160,153,-52
282,192,-90,-237,186,51,24,103,166,162,156,-49
282,192,-90,-237,186,51,24,104,167,166,159,-46
283,194,-89,-238,186,53,24,106,168,169,161,-45
285,197,-88,-241,187,55,25,107,169,171,163,-44
286,199,-87,-242,187,56,25,108,170,173,165,-43
286,200,-86,-243,186,57,24,108,171,174,166,-42
287,202,-85,-244,186,59,23,107,172,176,167,-41
288,203,-85,-245,187,59,23,108,173,178,170,-40
288,205,-83,-246,186,61,23,107,173,179,171,-40
289,206,-83,-247,186,62,22,105,172,180,172,-40
289,207,-82,-248,186,63,21,104,171,181,174,-37
290,209,-81,-249,186,64,18,103,169,182,174,-36
289,209,-80,-249,185,65,19,104,168,183,175,-34
288,210,-78,-249,183,66,20,105,168,184,176,-33
289,210,-79,-249,184,66,22,105,168,184,177,-32
289,210,-79,-249,184,66,22,104,168,184,177,-33
289,210,-79,-249,184,66,22,103,167,183,176,-34
288,210,-78,-249,183,66,21,102,166,182,175,-35
288,209,-79,-248,184,65,22,101,166,182,174,-36
288,208,-80,-248,184,64,22,98,163,179,171,-38
287,207,-80,-247,184,64,22,96,160,176,170,-40
286,206,-80,-246,183,63,22,94,157,173,167,-42
285,205,-80,-245,183,63,22,93,154,170,164,-43
282,203,-79,-242,181,62,24,92,150,164,160,-45
280,201,-79,-240,180,61,24,90,144,156,153,-48
278,199,-79,-238,179,60,24,88,139,149,148,-51
277,198,-79,-237,178,60,25,86,136,143,143,-54
277,196,-81,-236,179,58,26,84,133,136,139,-58
275,192,-83,-233,179,55,27,83,130,130,135,-60
273,187,-86,-230,180,51,28,80,126,124,130,-64
270,183,-87,-226,179,48,29,77,121,117,125,-67
268,180,-88,-224,178,46,30,75,117,112,121,-68
266,177,-89,-221,178,44,31,74,113,106,118,-70
264,174,-90,-219,177,42,31,72,106,98,112,-74
263,171,-92,-217,178,40,31,70,101,91,107,-78
261,167,-94,-214,178,37,32,68,96,84,101,-83
258,162,-96,-210,177,33,32,65,91,75,95,-89
255,157,-98,-206,177,30,33,63,89,70,89,-92
253,154,-99,-203,176,28,34,61,88,65,85,-94
253,152,-101,-202,177,26,33,58,85,58,80,-98
254,151,-103,-202,179,24,32,55,80,51,75,-100
252,149,-103,-200,178,23,33,53,74,47,73,-101
250,146,-104,-198,177,21,32,50,67,41,69,-104
247,143,-104,-195,176,20,32,49,61,35,65,-106
245,140,-105,-192,175,18,31,48,57,31,62,-108
244,137,-107,-190,176,15,30,47,54,27,59,-111
244,134,-110,-189,177,12,30,46,53,23,57,-113
244,132,-112,-188,178,10,31,45,53,21,54,-114
244,129,-115,-186,180,7,31,43,53,18,52,-115
243,129,-114,-186,179,8,31,42,51,15,49,-116
243,129,-114,-186,179,8,30,40,49,12,47,-117
242,127,-115,-184,179,6,30,39,46,9,46,-118
242,125,-117,-183,180,4,29,38,43,7,46,-119
241,124,-117,-182,179,4,30,38,40,5,44,-120
240,122,-118,-181,179,2,31,39,40,4,42,-120
239,120,-119,-179,179,1,31,39,40,2,40,-122
240,118,-122,-179,181,-2,31,38,39,0,38,-124
240,119,-121,-179,181,-1,31,37,39,-1,38,-124
240,119,-121,-179,181,-1,31,37,39,-2,37,-123
239,119,-120,-179,180,0,31,36,38,-3,36,-124
237,118,-119,-177,178,0,32,36,36,-5,35,-124
238,117,-121,-177,180,-2,31,34,33,-8,34,-125
238,116,-122,-177,180,-3,31,34,33,-8,33,-126
239,116,-123,-177,181,-3,31,35,32,-8,32,-126
238,115,-123,-176,181,-4,32,36,31,-9,31,-126
237,115,-122,-176,180,-3,32,35,29,-11,30,-127
238,116,-122,-177,180,-3,32,34,29,-12,29,-128
239,117,-122,-178,181,-2,32,36,30,-11,30,-127
240,118,-122,-179,181,-2,30,34,29,-12,30,-127
239,117,-122,-178,181,-2,31,34,29,-11,31,-127
239,116,-123,-177,181,-3,32,33,29,-11,32,-127
240,115,-125,-177,183,-5,32,34,29,-10,33,-124
240,114,-126,-177,183,-6,32,35,29,-10,34,-124
239,114,-125,-176,182,-5,32,36,31,-9,34,-125
239,115,-124,-177,182,-4,31,36,31,-9,33,-127
240,115,-125,-177,183,-5,33,36,32,-8,33,-128
240,116,-124,-178,182,-4,33,36,32,-7,33,-127
240,116,-124,-178,182,-4,32,36,32,-8,33,-127
240,116,-124,-178,182,-4,32,35,32,-8,33,-127
241,115,-126,-178,184,-5,31,34,32,-9,32,-127
241,115,-126,-178,184,-5,31,35,32,-9,34,-125
242,116,-126,-179,184,-5,31,35,32,-10,34,-124
242,117,-125,-179,184,-4,31,36,32,-9,34,-125
242,118,-124,-180,183,-3,31,35,31,-10,33,-126
242,118,-124,-180,183,-3,31,36,31,-10,33,-126
243,120,-123,-181,183,-1,32,36,31,-10,33,-126
243,121,-122,-182,183,0,33,37,32,-9,33,-126
243,120,-123,-181,183,-1,32,37,32,-9,33,-126
243,119,-124,-181,184,-2,32,37,33,-9,35,-125
242,117,-125,-179,184,-4,32,35,32,-8,35,-126
241,116,-125,-178,183,-4,32,34,30,-9,34,-127
241,115,-126,-178,184,-5,33,37,31,-7,35,-125
243,116,-127,-179,185,-5,33,37,31,-7,35,-125
244,116,-128,-180,186,-6,32,36,31,-8,34,-125
243,117,-126,-180,185,-4,32,36,31,-9,34,-124
243,117,-126,-180,185,-4,32,37,34,-9,34,-125
243,117,-126,-180,185,-4,33,38,36,-8,35,-125
244,117,-127,-180,186,-5,34,38,35,-9,35,-125
243,117,-126,-180,185,-4,34,37,32,-10,35,-125
243,117,-126,-180,185,-4,33,37,29,-9,36,-124
244,118,-126,-181,185,-4,33,37,29,-9,37,-123
245,119,-126,-182,186,-3,33,36,30,-9,36,-123
246,120,-126,-183,186,-3,32,35,32,-9,35,-124
247,120,-127,-183,187,-3,32,36,34,-8,36,-123
247,120,-127,-183,187,-3,31,37,35,-8,36,-123
247,120,-127,-183,187,-3,31,37,33,-8,36,-124
247,120,-127,-183,187,-3,31,36,31,-8,35,-124
248,121,-127,-184,188,-3,31,36,29,-9,34,-126
248,121,-127,-184,188,-3,31,36,29,-8,35,-126
249,122,-127,-185,188,-2,31,37,31,-8,35,-126
249,122,-127,-185,188,-2,31,37,34,-8,35,-125
249,122,-127,-185,188,-2,32,37,36,-9,35,-125
248,121,-127,-184,188,-3,32,37,35,-9,35,-124
248,121,-127,-184,188,-3,31,37,34,-10,34,-124
247,121,-126,-184,187,-2,32,37,33,-9,33,-125
247,121,-126,-184,187,-2,32,37,32,-10,32,-127
247,121,-126,-184,187,-2,32,37,32,-10,32,-127
248,122,-126,-185,187,-2,31,37,31,-11,32,-127
248,122,-126,-185,187,-2,31,37,33,-11,33,-126
250,123,-127,-186,189,-2,30,36,34,-11,33,-125
251,124,-127,-187,189,-1,30,36,34,-10,34,-125
251,124,-127,-187,189,-1,30,37,32,-10,35,-123
250,124,-126,-187,188,-1,31,37,30,-10,37,-122
248,123,-125,-185,187,-1,32,37,29,-10,38,-121
249,122,-127,-185,188,-2,32,37,29,-10,38,-121
250,121,-129,-185,190,-4,33,39,30,-10,38,-121
251,120,-131,-185,191,-5,33,38,30,-10,37,-122
251,119,-132,-185,192,-6,33,37,31,-10,35,-123
252,120,-132,-186,192,-6,32,36,30,-11,35,-124
252,121,-131,-186,192,-5,32,36,30,-10,37,-124
253,122,-131,-187,192,-4,30,36,30,-11,35,-125
253,122,-131,-187,192,-4,29,36,29,-11,34,-125
253,123,-130,-188,192,-3,29,36,29,-12,33,-125
252,123,-129,-187,191,-3,30,37,29,-12,34,-125
252,122,-130,-187,191,-4,31,39,30,-11,35,-124
251,121,-130,-186,191,-4,31,38,29,-12,34,-124
251,121,-130,-186,191,-4,32,38,29,-13,33,-124
251,122,-129,-186,190,-3,32,38,29,-13,33,-124
252,122,-130,-187,191,-4,32,38,29,-13,33,-124
253,122,-131,-187,192,-4,31,36,28,-15,32,-126
253,121,-132,-187,193,-5,32,36,27,-15,33,-125
253,121,-132,-187,193,-5,31,35,26,-15,33,-125
252,121,-131,-186,192,-5,31,35,25,-16,32,-125
252,121,-131,-186,192,-5,32,35,25,-16,31,-126
253,122,-131,-187,192,-4,30,34,24,-18,29,-128
253,121,-132,-187,193,-5,31,35,25,-18,30,-128
253,121,-132,-187,193,-5,31,35,25,-19,29,-128
252,121,-131,-186,192,-5,30,34,24,-20,28,-129
251,121,-130,-186,191,-4,30,33,23,-21,28,-129
251,121,-130,-186,191,-4,30,33,23,-21,28,-130
252,122,-130,-187,191,-4,30,33,23,-21,29,-129
252,123,-129,-187,191,-3,29,32,23,-22,28,-129
253,123,-130,-188,192,-3,30,32,23,-22,29,-127
252,123,-129,-187,191,-3,29,32,23,-22,29,-126
252,122,-130,-187,191,-4,30,33,22,-21,29,-127
253,120,-133,-186,193,-6,30,34,21,-21,30,-127
254,120,-134,-187,194,-7,32,34,23,-19,31,-125
254,119,-135,-186,195,-8,32,34,24,-19,31,-125
252,118,-134,-185,193,-8,32,34,25,-19,30,-125
251,118,-133,-184,192,-7,31,34,26,-18,30,-125
251,117,-134,-184,193,-8,32,35,27,-17,32,-124
251,117,-134,-184,193,-8,32,34,25,-19,33,-125
250,117,-133,-183,192,-8,31,33,23,-21,32,-126
251,118,-133,-184,192,-7,29,32,23,-23,30,-128
251,119,-132,-185,192,-6,30,33,24,-23,29,-128
251,119,-132,-185,192,-6,30,34,24,-22,30,-128
251,120,-131,-185,191,-5,30,34,24,-22,30,-128
252,120,-132,-186,192,-6,29,33,23,-23,28,-129
252,121,-131,-186,192,-5,29,33,23,-22,28,-129
252,121,-131,-186,192,-5,29,33,24,-22,28,-129
251,120,-131,-185,191,-5,30,33,24,-21,29,-128
251,120,-131,-185,191,-5,30,33,23,-22,30,-127
251,119,-132,-185,192,-6,31,33,22,-23,30,-127
251,118,-133,-184,192,-7,30,33,22,-23,29,-128
250,118,-132,-184,191,-7,31,33,22,-23,29,-127
250,117,-133,-183,192,-8,30,33,21,-24,30,-126
251,117,-134,-184,193,-8,29,33,21,-25,28,-127
251,117,-134,-184,193,-8,30,34,22,-24,28,-128
252,117,-135,-184,194,-9,29,33,22,-24,27,-130
252,117,-135,-184,194,-9,30,33,22,-23,28,-129
252,117,-135,-184,194,-9,30,32,22,-23,28,-128
252,118,-134,-185,193,-8,30,32,21,-22,28,-127
252,118,-134,-185,193,-8,30,33,21,-23,28,-125
251,118,-133,-184,192,-7,30,33,22,-24,28,-127
250,117,-133,-183,192,-8,30,34,22,-24,29,-127
252,118,-134,-185,193,-8,30,34,21,-24,28,-128
253,119,-134,-186,194,-7,30,33,20,-25,27,-129
252,119,-133,-185,193,-7,30,33,21,-24,28,-128
251,118,-133,-184,192,-7,30,32,20,-25,28,-128
251,118,-133,-184,192,-7,30,32,20,-26,28,-128
"
		252","
		118","
		-134","
		-185","
		193","
		-8","
		30","
		33","
		22","
		-25","
		29","
		-128"
253,119,-134,-186,194,-7,29,32,22,-25,28,-128
253,118,-135,-185,194,-8,30,33,23,-24,30,-128
252,118,-134,-185,193,-8,29,34,22,-25,30,-128
253,118,-135,-185,194,-8,29,34,22,-25,30,-128
254,118,-136,-186,195,-9,28,33,21,-26,28,-129
253,118,-135,-185,194,-8,28,33,22,-26,27,-129
253,118,-135,-185,194,-8,28,33,23,-26,27,-129
253,118,-135,-185,194,-8,28,33,23,-26,27,-130
253,118,-135,-185,194,-8,29,33,23,-26,27,-130
252,118,-134,-185,193,-8,29,32,23,-26,27,-129
253,119,-134,-186,194,-7,28,32,21,-26,27,-129
255,120,-135,-187,195,-7,28,32,20,-26,27,-128
254,120,-134,-187,194,-7,29,33,22,-24,28,-128
253,120,-133,-186,193,-6,29,31,21,-25,27,-129
252,119,-133,-185,193,-7,29,32,21,-26,27,-129
253,119,-134,-186,194,-7,28,32,20,-27,26,-129
254,118,-136,-186,195,-9,28,32,19,-27,26,-128
253,118,-135,-185,194,-8,28,33,19,-26,27,-128
252,117,-135,-184,194,-9,27,32,18,-25,27,-128
252,116,-136,-184,194,-10,28,32,20,-24,28,-127
252,116,-136,-184,194,-10,28,32,21,-23,29,-127
252,116,-136,-184,194,-10,28,33,22,-23,29,-127
252,117,-135,-184,194,-9,28,33,22,-24,28,-128
252,118,-134,-185,193,-8,28,33,20,-26,26,-129
252,118,-134,-185,193,-8,27,32,18,-27,25,-129
252,118,-134,-185,193,-8,27,31,19,-29,25,-130
252,117,-135,-184,194,-9,27,31,19,-29,25,-130
252,117,-135,-184,194,-9,27,30,20,-28,25,-130
253,117,-136,-185,195,-9,27,30,21,-26,26,-129
254,118,-136,-186,195,-9,25,29,20,-27,26,-130
255,119,-136,-187,196,-8,25,29,18,-26,26,-130
254,118,-136,-186,195,-9,26,29,16,-27,25,-131
253,117,-136,-185,195,-9,27,30,16,-27,26,-130
252,118,-134,-185,193,-8,27,31,17,-27,25,-130
254,118,-136,-186,195,-9,27,31,16,-28,24,-131
253,117,-136,-185,195,-9,28,32,18,-28,25,-129
252,116,-136,-184,194,-10,30,33,19,-27,26,-129
253,116,-137,-184,195,-10,28,31,18,-28,23,-131
253,115,-138,-184,196,-11,29,31,18,-27,23,-130
253,115,-138,-184,196,-11,28,30,16,-27,24,-130
252,115,-137,-183,195,-11,27,30,16,-27,25,-129
253,117,-136,-185,195,-9,27,30,17,-28,25,-129
254,118,-136,-186,195,-9,27,30,18,-29,24,-130
253,117,-136,-185,195,-9,28,31,19,-28,25,-130
252,117,-135,-184,194,-9,28,31,18,-29,25,-130
252,117,-135,-184,194,-9,29,32,18,-29,24,-130
253,117,-136,-185,195,-9,29,32,19,-29,24,-129
253,116,-137,-184,195,-10,30,31,19,-29,25,-129
253,117,-136,-185,195,-9,30,31,19,-28,26,-128
254,117,-137,-185,196,-10,30,30,19,-28,27,-127
255,118,-137,-186,196,-9,30,30,18,-28,26,-128
256,118,-138,-187,197,-10,30,30,17,-29,25,-129
255,118,-137,-186,196,-9,29,29,15,-30,24,-129
254,118,-136,-186,195,-9,28,28,13,-31,24,-129
254,117,-137,-185,196,-10,29,30,14,-30,25,-128
255,117,-138,-186,197,-10,29,29,15,-30,23,-130
254,117,-137,-185,196,-10,31,30,18,-29,24,-130
254,118,-136,-186,195,-9,29,29,17,-30,23,-131
254,119,-135,-186,195,-8,27,29,17,-30,23,-131
254,119,-135,-186,195,-8,28,28,17,-31,23,-132
254,120,-134,-187,194,-7,29,28,17,-31,24,-132
254,119,-135,-186,195,-8,28,28,16,-30,24,-131
254,119,-135,-186,195,-8,27,28,15,-30,23,-131
254,117,-137,-185,196,-10,28,29,16,-29,23,-130
253,116,-137,-184,195,-10,29,29,16,-29,23,-131
254,116,-138,-185,196,-11,29,29,16,-29,23,-130
254,117,-137,-185,196,-10,29,29,17,-29,23,-130
254,117,-137,-185,196,-10,29,29,16,-30,23,-129
254,117,-137,-185,196,-10,30,29,16,-30,23,-129
254,117,-137,-185,196,-10,30,29,17,-29,24,-129
254,116,-138,-185,196,-11,30,29,17,-29,25,-130
253,115,-138,-184,196,-11,30,29,17,-28,24,-129
251,114,-137,-182,194,-11,30,28,17,-29,23,-130
252,116,-136,-184,194,-10,30,28,17,-29,23,-131
254,117,-137,-185,196,-10,31,29,18,-29,24,-131
253,118,-135,-185,194,-8,31,29,18,-29,24,-131
251,117,-134,-184,193,-8,31,30,18,-29,23,-130
251,117,-134,-184,193,-8,31,30,17,-30,22,-131
252,117,-135,-184,194,-9,30,29,16,-30,21,-131
253,117,-136,-185,195,-9,30,29,16,-29,22,-130
253,117,-136,-185,195,-9,31,30,15,-29,22,-129
253,118,-135,-185,194,-8,31,30,15,-30,22,-129
253,118,-135,-185,194,-8,31,30,15,-30,23,-130
253,117,-136,-185,195,-9,31,30,16,-31,23,-131
253,117,-136,-185,195,-9,30,30,18,-31,23,-131
254,117,-137,-185,196,-10,30,30,18,-31,22,-131
253,117,-136,-185,195,-9,30,30,17,-31,21,-131
253,116,-137,-184,195,-10,30,29,17,-31,22,-131
253,115,-138,-184,196,-11,32,30,18,-29,23,-130
253,115,-138,-184,196,-11,33,31,18,-29,23,-130
253,116,-137,-184,195,-10,32,30,17,-30,22,-131
253,116,-137,-184,195,-10,31,29,16,-30,21,-132
252,116,-136,-184,194,-10,32,30,17,-30,22,-132
252,115,-137,-183,195,-11,32,29,17,-31,22,-132
252,116,-136,-184,194,-10,32,29,17,-32,21,-132
252,116,-136,-184,194,-10,32,29,17,-33,21,-132
252,116,-136,-184,194,-10,31,29,17,-33,21,-131
252,116,-136,-184,194,-10,31,29,16,-32,21,-131
252,116,-136,-184,194,-10,30,28,14,-33,21,-131
253,116,-137,-184,195,-10,29,27,12,-34,20,-132
253,117,-136,-185,195,-9,29,27,12,-33,21,-131
253,118,-135,-185,194,-8,30,27,12,-33,21,-132
253,119,-134,-186,194,-7,29,26,11,-34,19,-133
253,119,-134,-186,194,-7,30,27,11,-34,19,-133
254,120,-134,-187,194,-7,30,28,12,-33,20,-132
254,120,-134,-187,194,-7,30,28,13,-33,21,-131
254,119,-135,-186,195,-8,30,27,14,-33,20,-131
252,117,-135,-184,194,-9,30,27,14,-32,20,-131
252,116,-136,-184,194,-10,31,28,16,-31,20,-131
253,116,-137,-184,195,-10,30,28,16,-31,20,-131
253,116,-137,-184,195,-10,30,28,15,-30,20,-132
252,115,-137,-183,195,-11,30,28,15,-30,20,-132
250,114,-136,-182,193,-11,31,29,16,-31,20,-132
251,115,-136,-183,194,-10,30,28,14,-33,19,-133
252,116,-136,-184,194,-10,30,28,14,-34,19,-133
252,117,-135,-184,194,-9,29,27,14,-36,17,-134
251,117,-134,-184,193,-8,31,27,16,-36,18,-133
252,118,-134,-185,193,-8,30,27,16,-36,18,-134
253,119,-134,-186,194,-7,30,26,15,-35,18,-134
254,119,-135,-186,195,-8,30,27,15,-33,19,-133
254,119,-135,-186,195,-8,30,26,13,-32,19,-132
253,118,-135,-185,194,-8,30,26,12,-32,19,-132
251,117,-134,-184,193,-8,31,26,13,-33,19,-133
250,116,-134,-183,192,-9,31,27,13,-33,19,-133
250,116,-134,-183,192,-9,31,27,13,-33,19,-132
251,116,-135,-183,193,-9,31,28,13,-34,18,-132
252,116,-136,-184,194,-10,31,28,13,-34,18,-132
252,117,-135,-184,194,-9,30,27,14,-34,17,-133
252,117,-135,-184,194,-9,30,27,15,-35,17,-134
252,118,-134,-185,193,-8,30,27,15,-36,17,-133
253,119,-134,-186,194,-7,29,26,13,-36,17,-133
253,119,-134,-186,194,-7,29,26,14,-36,17,-132
253,119,-134,-186,194,-7,29,26,15,-37,17,-133
252,117,-135,-184,194,-9,30,26,17,-37,18,-133
252,117,-135,-184,194,-9,30,26,17,-37,17,-134
252,118,-134,-185,193,-8,31,27,17,-37,17,-134
253,118,-135,-185,194,-8,31,27,17,-36,17,-133
253,117,-136,-185,195,-9,31,26,16,-35,17,-134
252,116,-136,-184,194,-10,31,27,15,-34,18,-133
252,116,-136,-184,194,-10,32,27,15,-34,19,-133
252,117,-135,-184,194,-9,31,26,13,-35,18,-133
251,117,-134,-184,193,-8,31,26,14,-33,18,-133
252,117,-135,-184,194,-9,30,25,13,-34,16,-135
252,116,-136,-184,194,-10,31,27,14,-34,17,-134
251,115,-136,-183,194,-10,31,27,14,-35,16,-135
250,116,-134,-183,192,-9,30,27,15,-37,16,-135
251,117,-134,-184,193,-8,30,27,16,-35,16,-134
251,118,-133,-184,192,-7,29,26,15,-35,15,-134
251,117,-134,-184,193,-8,30,27,15,-35,16,-134
251,117,-134,-184,193,-8,30,27,15,-35,16,-133
252,117,-135,-184,194,-9,30,26,14,-36,16,-133
252,117,-135,-184,194,-9,30,26,14,-35,17,-134
252,117,-135,-184,194,-9,30,25,15,-35,16,-134
251,118,-133,-184,192,-7,29,25,16,-36,16,-134
251,118,-133,-184,192,-7,29,25,16,-36,15,-134
251,118,-133,-184,192,-7,29,24,15,-37,15,-134
251,118,-133,-184,192,-7,28,24,13,-38,15,-135
251,119,-132,-185,192,-6,28,24,11,-37,15,-135
251,119,-132,-185,192,-6,28,24,11,-37,15,-134
251,119,-132,-185,192,-6,28,24,11,-38,14,-134
250,118,-132,-184,191,-7,28,25,15,-37,16,-133
250,118,-132,-184,191,-7,28,25,17,-36,17,-133
251,118,-133,-184,192,-7,28,24,16,-37,16,-134
251,118,-133,-184,192,-7,28,25,15,-36,16,-134
251,118,-133,-184,192,-7,28,25,13,-36,16,-134
251,117,-134,-184,193,-8,29,27,13,-34,17,-134
252,118,-134,-185,193,-8,29,26,13,-35,16,-135
252,118,-134,-185,193,-8,29,26,14,-34,16,-136
250,118,-132,-184,191,-7,29,26,15,-34,17,-137
249,117,-132,-183,191,-7,28,25,15,-35,16,-138
250,118,-132,-184,191,-7,28,25,14,-35,16,-137
250,119,-131,-184,191,-6,27,24,13,-36,15,-137
250,118,-132,-184,191,-7,28,24,13,-36,15,-136
249,117,-132,-183,191,-7,28,23,13,-37,14,-136
249,117,-132,-183,191,-7,27,23,13,-39,13,-137
248,117,-131,-182,190,-7,28,25,13,-39,14,-135
248,117,-131,-182,190,-7,29,25,13,-39,14,-135
248,118,-130,-183,189,-6,28,24,13,-40,13,-136
249,118,-131,-183,190,-6,28,24,12,-40,13,-136
249,118,-131,-183,190,-6,27,23,12,-39,13,-136
249,117,-132,-183,191,-7,27,24,11,-39,13,-136
249,116,-133,-182,191,-8,29,25,11,-38,14,-136
249,115,-134,-182,192,-9,29,25,10,-39,13,-138
250,115,-135,-182,193,-10,30,26,10,-39,13,-138
250,115,-135,-182,193,-10,31,27,11,-38,13,-138
250,115,-135,-182,193,-10,32,28,13,-37,13,-137
251,115,-136,-183,194,-10,32,28,14,-37,13,-138
252,115,-137,-183,195,-11,32,29,16,-36,13,-138
252,114,-138,-183,195,-12,33,29,17,-36,13,-138
253,113,-140,-183,197,-13,34,30,17,-36,13,-138
254,114,-140,-184,197,-13,35,31,17,-34,15,-136
256,115,-141,-185,199,-13,35,32,17,-33,16,-136
256,115,-141,-185,199,-13,34,33,18,-32,18,-135
255,115,-140,-185,198,-12,34,33,18,-32,18,-135
255,115,-140,-185,198,-12,34,33,17,-32,17,-135
256,115,-141,-185,199,-13,33,32,17,-33,17,-134
256,115,-141,-185,199,-13,32,30,18,-33,17,-135
255,114,-141,-184,198,-13,31,29,18,-33,17,-135
256,113,-143,-184,200,-15,30,30,18,-34,17,-135
257,113,-144,-185,201,-15,32,31,18,-34,17,-135
258,114,-144,-186,201,-15,33,32,17,-34,16,-136
257,114,-143,-185,200,-14,35,34,18,-33,17,-136
256,114,-142,-185,199,-14,35,34,19,-33,16,-136
255,114,-141,-184,198,-13,35,33,19,-34,16,-136
255,114,-141,-184,198,-13,35,32,18,-34,15,-136
256,115,-141,-185,199,-13,35,32,19,-35,15,-137
257,115,-142,-186,200,-13,34,32,19,-36,14,-137
257,116,-141,-186,199,-12,34,31,19,-35,15,-136
257,116,-141,-186,199,-12,33,30,18,-35,16,-135
257,116,-141,-186,199,-12,31,28,16,-36,16,-135
257,116,-141,-186,199,-12,29,25,14,-37,15,-137
257,116,-141,-186,199,-12,26,23,10,-38,13,-138
256,116,-140,-186,198,-12,24,20,7,-40,12,-138
256,116,-140,-186,198,-12,25,20,8,-40,13,-138
256,116,-140,-186,198,-12,25,21,11,-39,13,-138
256,117,-139,-186,198,-11,26,22,13,-39,13,-137
257,116,-141,-186,199,-12,26,22,15,-40,13,-137
258,116,-142,-187,200,-13,26,21,15,-40,13,-137
257,115,-142,-186,200,-13,26,22,14,-39,14,-137
257,116,-141,-186,199,-12,27,23,12,-38,15,-136
257,116,-141,-186,199,-12,27,24,10,-38,15,-136
257,116,-141,-186,199,-12,28,24,9,-37,16,-135
257,116,-141,-186,199,-12,28,24,10,-37,16,-134
257,117,-140,-187,199,-11,28,24,11,-37,16,-134
258,118,-140,-188,199,-11,27,22,10,-39,14,-135
258,117,-141,-187,200,-12,26,20,9,-41,13,-136
256,115,-141,-185,199,-13,26,20,10,-41,13,-138
252,114,-138,-183,195,-12,25,19,11,-43,11,-141
250,113,-137,-181,194,-12,26,19,12,-44,9,-142
250,113,-137,-181,194,-12,27,19,12,-43,8,-142
249,112,-137,-180,193,-12,28,20,12,-42,9,-141
247,112,-135,-179,191,-11,28,21,11,-41,9,-140
245,113,-132,-179,189,-9,28,21,9,-42,9,-140
245,113,-132,-179,189,-9,29,21,8,-41,9,-140
245,113,-132,-179,189,-9,29,21,8,-41,10,-140
245,113,-132,-179,189,-9,29,21,9,-40,9,-140
245,113,-132,-179,189,-9,29,21,9,-40,9,-139
246,112,-134,-179,190,-11,29,21,10,-39,10,-139
247,113,-134,-180,191,-10,28,20,9,-40,10,-139
248,114,-134,-181,191,-10,29,20,10,-41,11,-138
247,113,-134,-180,191,-10,28,20,9,-42,10,-139
247,112,-135,-179,191,-11,28,20,9,-43,11,-139
246,112,-134,-179,190,-11,27,20,9,-44,10,-139
246,113,-133,-179,190,-10,28,21,11,-43,10,-139
246,113,-133,-179,190,-10,28,22,12,-42,11,-139
247,114,-133,-180,190,-9,27,21,11,-42,9,-140
247,114,-133,-180,190,-9,27,21,11,-41,9,-140
247,114,-133,-180,190,-9,26,21,11,-41,10,-140
246,115,-131,-180,189,-8,26,20,10,-41,10,-140
246,115,-131,-180,189,-8,27,19,10,-41,10,-139
246,115,-131,-180,189,-8,27,19,10,-41,10,-138
246,115,-131,-180,189,-8,27,19,11,-41,10,-138
247,115,-132,-181,190,-8,26,20,11,-42,9,-139
247,115,-132,-181,190,-8,26,20,10,-42,8,-140
246,114,-132,-180,189,-9,26,20,9,-43,8,-140
245,114,-131,-179,188,-8,27,20,9,-42,9,-139
244,114,-130,-179,187,-8,28,20,9,-42,9,-139
245,114,-131,-179,188,-8,28,21,9,-41,9,-139
246,115,-131,-180,189,-8,28,20,8,-41,8,-140
245,115,-130,-180,188,-7,28,20,8,-41,8,-141
245,115,-130,-180,188,-7,28,20,11,-40,8,-142
245,114,-131,-179,188,-8,30,23,16,-38,8,-142
245,114,-131,-179,188,-8,32,26,19,-37,7,-143
244,113,-131,-178,188,-9,34,29,20,-38,5,-145
243,111,-132,-177,188,-10,37,33,22,-37,4,-146
243,109,-134,-176,189,-12,41,37,27,-35,4,-148
244,107,-137,-175,191,-15,44,42,32,-34,4,-149
245,107,-138,-176,192,-15,46,47,37,-29,5,-148
246,110,-136,-178,191,-13,47,48,42,-21,8,-146
248,113,-135,-180,192,-11,46,47,45,-12,12,-144
251,116,-135,-183,193,-9,45,49,51,-2,18,-141
254,119,-135,-186,195,-8,46,55,60,12,27,-136
260,121,-139,-190,200,-9,47,62,72,26,37,-132
266,125,-141,-195,204,-8,51,73,86,44,48,-127
270,132,-138,-201,204,-3,57,86,107,67,62,-118
275,142,-133,-208,204,5,63,99,132,97,82,-106
283,156,-127,-219,205,15,64,108,155,130,107,-89
291,176,-115,-233,203,31,58,106,170,163,136,-69
299,200,-99,-249,199,51,41,90,174,197,168,-45
308,228,-80,-268,194,74,15,61,166,236,205,-17
317,260,-57,-288,187,102,-21,20,143,279,247,13
327,293,-34,-310,181,130,-61,-26,108,321,287,41
334,316,-18,-325,176,149,-93,-67,71,359,320,64
335,326,-9,-330,172,159,-116,-102,45,393,343,77
326,327,1,-326,163,164,-126,-133,31,424,355,81
308,321,13,-314,148,167,-128,-159,15,437,352,76
288,307,19,-297,135,163,-124,-178,-9,421,331,62
270,284,14,-277,128,149,-115,-185,-39,365,289,38
252,251,-1,-251,127,125,-105,-185,-78,263,227,4
232,217,-15,-224,124,101,-93,-178,-123,133,153,-35
212,186,-26,-199,119,80,-76,-161,-157,10,83,-74
195,159,-36,-177,116,62,-55,-139,-175,-85,24,-109
185,138,-47,-161,116,46,-39,-120,-180,-138,-17,-135
183,127,-56,-155,120,36,-36,-112,-179,-155,-38,-151
185,122,-63,-153,124,30,-40,-109,-175,-153,-44,-159
189,117,-72,-153,131,23,-45,-107,-172,-150,-47,-164
193,112,-81,-152,137,16,-47,-102,-163,-145,-45,-166
201,108,-93,-154,147,8,-51,-96,-151,-135,-40,-167
210,107,-103,-158,157,2,-50,-84,-133,-121,-34,-165
"
		216","
		105","
		-111","
		-160","
		164","
		-3","
		-42","
		-68","
		-115","
		-110","
		-30","
		-165"
221,100,-121,-160,171,-10,-31,-50,-97,-99,-25,-162
225,95,-130,-160,178,-17,-21,-33,-78,-88,-19,-158
230,92,-138,-161,184,-23,-12,-21,-64,-80,-14,-156
234,92,-142,-163,188,-25,0,-10,-47,-71,-10,-154
237,94,-143,-165,190,-24,11,3,-29,-60,-5,-152
241,97,-144,-169,193,-23,19,14,-13,-49,1,-149
244,102,-142,-173,193,-20,24,22,1,-40,6,-145
246,110,-136,-178,191,-13,29,30,13,-30,13,-140
247,116,-131,-181,189,-7,33,37,24,-23,18,-137
247,121,-126,-184,187,-2,37,42,34,-18,22,-134
247,126,-121,-186,184,3,36,42,40,-15,24,-132
246,131,-115,-188,181,8,36,42,45,-12,26,-130
246,132,-114,-189,180,9,35,41,46,-12,26,-131
247,132,-115,-189,181,9,35,42,48,-11,26,-131
248,131,-117,-189,183,7,35,42,49,-11,25,-131
247,131,-116,-189,182,8,35,42,50,-11,24,-132
246,130,-116,-188,181,7,37,43,52,-10,24,-132
247,130,-117,-188,182,7,37,44,53,-9,26,-131
247,131,-116,-189,182,8,37,44,52,-8,26,-131
246,131,-115,-188,181,8,38,46,52,-7,27,-130
245,130,-115,-187,180,8,39,47,52,-7,26,-130
246,131,-115,-188,181,8,40,49,55,-7,27,-129
247,131,-116,-189,182,8,39,49,56,-8,25,-131
247,130,-117,-188,182,7,40,50,58,-7,25,-130
247,131,-116,-189,182,8,39,48,58,-7,26,-131
248,132,-116,-190,182,8,40,48,58,-6,27,-130
249,133,-116,-191,183,9,40,48,57,-6,27,-131
248,133,-115,-190,182,9,40,47,57,-6,27,-131
248,132,-116,-190,182,8,40,48,58,-5,28,-130
248,132,-116,-190,182,8,40,48,59,-5,28,-130
248,133,-115,-190,182,9,40,49,59,-5,28,-130
248,133,-115,-190,182,9,40,51,61,-3,28,-130
248,133,-115,-190,182,9,41,51,62,-3,28,-130
249,133,-116,-191,183,9,40,52,63,-2,27,-129
249,134,-115,-191,182,10,40,52,65,-1,28,-129
250,135,-115,-192,183,10,39,51,65,-1,29,-129
251,135,-116,-193,184,10,39,51,66,0,30,-128
251,135,-116,-193,184,10,40,52,66,1,31,-128
250,135,-115,-192,183,10,40,52,66,2,32,-128
248,135,-113,-191,181,11,41,53,67,3,32,-127
249,135,-114,-192,182,11,40,53,68,3,32,-129
249,136,-113,-192,181,12,40,54,69,4,33,-128
250,137,-113,-193,182,12,40,53,70,4,32,-129
250,136,-114,-193,182,11,41,54,73,5,32,-127
250,135,-115,-192,183,10,41,54,75,6,33,-126
251,135,-116,-193,184,10,41,54,76,7,34,-127
252,135,-117,-193,185,9,40,53,76,7,34,-128
252,135,-117,-193,185,9,40,53,76,9,35,-128
252,137,-115,-194,184,11,41,53,75,10,36,-127
252,137,-115,-194,184,11,41,54,75,12,37,-126
252,137,-115,-194,184,11,42,55,76,12,38,-125
252,137,-115,-194,184,11,42,56,78,13,38,-125
252,138,-114,-195,183,12,41,56,79,13,37,-126
252,138,-114,-195,183,12,40,56,81,12,37,-127
252,137,-115,-194,184,11,41,57,83,14,38,-126
252,138,-114,-195,183,12,40,56,82,14,38,-126
253,139,-114,-196,184,13,41,56,83,15,39,-125
254,139,-115,-196,185,12,40,56,84,16,40,-124
254,139,-115,-196,185,12,40,56,87,18,41,-122
253,140,-113,-196,183,14,41,57,89,20,41,-121
253,140,-113,-196,183,14,41,58,89,20,42,-121
254,141,-113,-197,184,14,42,60,89,21,42,-121
253,141,-112,-197,183,15,42,60,89,22,43,-121
253,142,-111,-197,182,16,42,61,89,23,43,-121
253,142,-111,-197,182,16,42,61,89,25,44,-121
254,143,-111,-198,183,16,41,61,89,26,44,-122
255,144,-111,-199,183,17,40,60,91,27,45,-122
256,144,-112,-200,184,16,40,61,93,28,46,-120
256,145,-111,-200,184,17,41,62,94,28,47,-119
256,146,-110,-201,183,18,40,63,94,28,47,-119
256,147,-109,-201,183,19,41,64,97,30,49,-118
257,147,-110,-202,184,19,42,66,100,32,50,-117
257,147,-110,-202,184,19,42,67,102,34,52,-116
257,147,-110,-202,184,19,42,68,103,35,52,-116
256,147,-109,-201,183,19,40,67,103,36,52,-117
255,146,-109,-200,182,19,39,67,103,38,53,-116
255,146,-109,-200,182,19,39,65,104,39,54,-116
257,148,-109,-202,183,20,38,65,105,40,54,-116
258,150,-108,-204,183,21,39,66,107,43,55,-115
258,152,-106,-205,182,23,41,69,110,45,57,-113
258,153,-105,-205,182,24,41,71,111,46,58,-112
259,153,-106,-206,183,24,41,74,113,48,59,-111
260,154,-106,-207,183,24,40,73,114,47,60,-112
260,154,-106,-207,183,24,40,73,116,47,61,-112
260,154,-106,-207,183,24,40,74,119,50,62,-111
260,155,-105,-207,183,25,40,74,122,52,64,-109
261,157,-104,-209,183,27,39,74,122,54,65,-109
261,158,-103,-209,182,28,40,75,123,57,67,-107
262,159,-103,-210,183,28,40,75,123,60,68,-107
261,160,-101,-210,181,30,40,77,123,61,70,-105
261,161,-100,-211,181,31,41,79,124,62,72,-104
262,161,-101,-211,182,30,40,80,124,64,73,-103
264,162,-102,-213,183,30,39,81,127,66,74,-103
265,163,-102,-214,184,31,40,83,131,70,76,-101
267,165,-102,-216,185,32,38,82,133,72,77,-102
267,167,-100,-217,184,34,39,83,135,75,79,-100
267,169,-98,-218,183,36,38,84,137,78,81,-99
267,170,-97,-218,182,37,39,86,139,81,84,-96
268,172,-96,-220,182,38,39,86,141,83,86,-95
268,173,-95,-220,182,39,39,87,142,85,87,-94
268,174,-94,-221,181,40,40,90,144,89,90,-92
268,176,-92,-222,180,42,40,92,146,92,92,-91
269,178,-91,-223,180,44,40,93,149,95,94,-89
271,179,-92,-225,182,44,39,94,152,98,97,-87
273,180,-93,-226,183,44,38,94,155,101,100,-86
273,182,-91,-227,182,46,38,96,158,105,103,-83
275,185,-90,-230,183,48,37,96,159,107,105,-81
276,187,-89,-231,183,49,37,97,161,110,108,-78
277,190,-87,-233,182,52,37,98,163,113,111,-76
278,192,-86,-235,182,53,37,99,164,117,114,-75
279,194,-85,-236,182,55,36,100,166,120,116,-74
280,196,-84,-238,182,56,35,101,167,123,118,-74
280,198,-82,-239,181,58,34,101,169,126,120,-74
281,200,-81,-240,181,60,33,102,171,129,122,-72
282,203,-79,-242,181,62,33,102,173,133,125,-70
283,205,-78,-244,181,64,32,102,175,136,127,-67
283,207,-76,-245,180,66,31,101,176,139,129,-65
284,209,-75,-246,180,67,31,101,176,142,132,-63
286,211,-75,-248,181,68,31,103,177,146,135,-61
288,213,-75,-250,182,69,30,105,179,148,137,-61
288,215,-73,-251,181,71,31,106,183,150,139,-58
288,216,-72,-252,180,72,29,105,184,151,139,-58
287,217,-70,-252,179,74,29,105,185,153,140,-57
286,217,-69,-251,178,74,29,105,186,156,143,-55
287,217,-70,-252,179,74,28,104,186,158,144,-55
288,219,-69,-253,179,75,27,103,187,159,146,-54
289,221,-68,-255,179,77,27,102,187,160,147,-53
289,223,-66,-256,178,79,27,103,186,162,150,-51
289,224,-65,-256,177,80,27,101,183,162,150,-51
289,224,-65,-256,177,80,27,101,180,163,151,-50
288,224,-64,-256,176,80,28,102,178,164,152,-48
288,224,-64,-256,176,80,28,101,175,164,151,-48
288,225,-63,-256,176,81,27,100,175,163,150,-49
289,225,-64,-257,177,81,27,99,175,163,149,-50
288,224,-64,-256,176,80,28,98,176,163,149,-51
287,223,-64,-255,176,80,26,96,175,160,146,-53
285,222,-63,-253,174,80,26,93,173,157,144,-54
284,220,-64,-252,174,78,26,90,169,153,141,-56
282,218,-64,-250,173,77,27,88,166,149,138,-57
280,216,-64,-248,172,76,28,85,161,144,135,-60
278,213,-65,-245,172,74,29,84,157,139,131,-62
277,209,-68,-243,173,71,29,81,151,132,125,-65
275,206,-69,-240,172,69,29,79,147,126,121,-67
274,203,-71,-238,173,66,28,75,142,118,116,-71
272,200,-72,-236,172,64,28,72,137,111,111,-75
270,197,-73,-233,172,62,28,69,132,104,106,-79
268,193,-75,-230,172,59,28,67,127,97,100,-83
266,189,-77,-227,172,56,28,65,122,91,95,-86
265,185,-80,-225,173,53,27,61,115,83,90,-91
262,181,-81,-221,172,50,28,60,110,77,85,-93
259,177,-82,-218,171,48,28,58,104,69,80,-96
257,173,-84,-215,171,45,28,55,99,60,74,-99
256,169,-87,-212,172,41,28,53,94,52,68,-104
254,165,-89,-209,172,38,27,50,89,44,62,-108
252,162,-90,-207,171,36,26,47,84,37,56,-111
