I,II,III,aVR,aVL,aVF,V1,V2,V3,V4,V5,V6
23,-152,-175,65,99,-163,-113,110,78,124,37,-161
22,-152,-174,65,98,-163,-113,110,77,123,36,-162
22,-152,-174,65,98,-163,-113,109,76,122,35,-163
21,-152,-173,66,97,-162,-114,108,74,121,34,-164
20,-153,-173,67,97,-163,-114,107,74,120,34,-164
19,-153,-172,67,96,-162,-115,106,73,119,33,-165
18,-153,-171,68,95,-162,-114,106,73,119,33,-165
17,-153,-170,68,94,-161,-114,106,73,119,32,-166
16,-154,-170,69,93,-162,-113,106,73,119,32,-165
15,-154,-169,70,92,-161,-113,106,73,119,31,-166
15,-154,-169,70,92,-161,-113,106,73,119,31,-166
14,-154,-168,70,91,-161,-112,106,72,119,30,-166
15,-154,-169,70,92,-161,-112,105,72,119,30,-166
15,-154,-169,70,92,-161,-112,105,72,119,31,-166
15,-154,-169,70,92,-161,-112,104,72,119,31,-166
15,-153,-168,69,92,-160,-113,104,72,119,31,-166
16,-153,-169,69,93,-161,-114,102,71,117,30,-167
16,-153,-169,69,93,-161,-114,102,71,117,30,-168
16,-153,-169,69,93,-161,-115,102,71,117,30,-168
16,-153,-169,69,93,-161,-115,102,70,116,30,-168
15,-154,-169,70,92,-161,-114,104,71,116,31,-168
15,-154,-169,70,92,-161,-114,104,71,116,31,-168
15,-153,-168,69,92,-160,-113,104,71,116,31,-168
14,-153,-167,70,91,-160,-113,104,71,116,31,-168
14,-153,-167,70,91,-160,-113,104,71,116,31,-168
14,-153,-167,70,91,-160,-113,104,71,116,31,-168
14,-153,-167,70,91,-160,-113,104,71,116,32,-168
14,-152,-166,69,90,-159,-113,104,71,116,31,-168
13,-152,-165,70,89,-158,-113,103,71,116,31,-168
13,-152,-165,70,89,-158,-114,104,72,116,31,-169
13,-152,-165,70,89,-158,-114,104,72,116,31,-169
12,-152,-164,70,88,-158,-114,104,72,116,31,-169
12,-152,-164,70,88,-158,-114,104,73,116,31,-170
11,-152,-163,71,87,-157,-113,105,74,116,32,-169
11,-152,-163,71,87,-157,-113,105,74,116,32,-169
10,-152,-162,71,86,-157,-113,104,74,116,32,-169
10,-153,-163,72,87,-158,-113,104,74,115,31,-169
9,-153,-162,72,86,-157,-112,105,76,116,32,-169
8,-153,-161,73,85,-157,-112,106,76,115,31,-170
7,-154,-161,74,84,-157,-110,108,77,115,30,-170
6,-155,-161,75,84,-158,-109,110,78,114,29,-172
6,-157,-163,76,85,-160,-107,114,80,114,28,-173
5,-158,-163,77,84,-160,-103,118,84,115,27,-174
5,-159,-164,77,85,-161,-101,122,87,115,26,-176
6,-159,-165,77,86,-162,-98,125,92,117,25,-176
7,-159,-166,76,87,-162,-97,128,97,120,26,-177
8,-158,-166,75,87,-162,-94,132,105,126,28,-175
10,-156,-166,73,88,-161,-94,135,113,132,31,-174
13,-154,-167,71,90,-160,-93,140,124,142,37,-170
17,-151,-168,67,93,-159,-93,146,135,152,42,-167
22,-148,-170,63,96,-159,-90,158,151,166,51,-162
27,-144,-171,59,99,-157,-86,173,171,184,62,-155
33,-137,-170,52,102,-153,-83,189,195,205,76,-146
39,-127,-166,44,103,-146,-80,205,222,233,96,-133
45,-112,-157,34,101,-134,-81,216,250,265,119,-116
52,-91,-143,20,98,-117,-90,218,280,304,148,-94
60,-65,-125,3,93,-95,-107,206,308,348,183,-69
69,-36,-105,-16,87,-70,-132,182,334,396,221,-40
77,-7,-84,-35,81,-45,-163,145,356,445,260,-10
83,20,-63,-51,73,-21,-196,102,375,493,297,17
87,41,-46,-64,67,-2,-226,57,394,537,328,40
85,56,-29,-70,57,14,-250,12,407,571,351,55
78,62,-16,-70,47,23,-265,-27,413,592,363,64
67,58,-9,-62,38,25,-274,-63,406,592,361,62
53,45,-8,-49,31,19,-277,-92,380,565,343,51
37,24,-13,-30,25,6,-275,-115,330,509,310,30
19,-1,-20,-9,20,-10,-267,-131,259,430,265,1
2,-29,-31,14,17,-30,-257,-139,177,338,212,-32
-12,-58,-46,35,17,-52,-245,-141,94,243,157,-67
-23,-82,-59,53,18,-70,-235,-137,21,159,107,-100
-32,-103,-71,68,20,-87,-225,-128,-34,95,66,-128
-37,-119,-82,78,23,-100,-218,-117,-67,54,36,-150
-38,-131,-93,85,28,-112,-216,-106,-79,34,16,-167
-35,-140,-105,88,35,-122,-218,-95,-77,30,6,-177
-29,-146,-117,88,44,-131,-221,-82,-67,34,2,-183
-23,-153,-130,88,54,-141,-221,-67,-53,41,0,-187
-17,-159,-142,88,63,-150,-218,-49,-37,49,0,-189
-11,-165,-154,88,72,-159,-213,-30,-21,57,2,-189
-6,-170,-164,88,79,-167,-205,-11,-6,65,5,-189
-2,-174,-172,88,85,-173,-193,9,8,73,7,-189
2,-177,-179,88,91,-178,-180,29,21,80,10,-188
4,-178,-182,87,93,-180,-167,47,35,88,14,-186
6,-177,-183,86,95,-180,-155,64,47,96,18,-184
9,-173,-182,82,96,-177,-144,78,60,104,22,-182
12,-168,-180,78,96,-174,-132,93,73,113,27,-178
13,-161,-174,74,94,-167,-124,106,84,120,32,-174
14,-154,-168,70,91,-161,-118,115,93,126,36,-170
15,-148,-163,67,89,-155,-112,124,101,132,41,-166
15,-143,-158,64,87,-150,-108,131,106,136,44,-164
15,-140,-155,63,85,-147,-106,136,110,138,45,-162
15,-138,-153,62,84,-145,-103,140,113,140,47,-160
15,-136,-151,61,83,-143,-103,141,114,140,47,-160
16,-136,-152,60,84,-144,-101,143,115,140,47,-160
16,-136,-152,60,84,-144,-101,145,117,141,47,-160
17,-136,-153,60,85,-144,-101,145,116,140,46,-161
18,-136,-154,59,86,-145,-101,145,117,141,46,-160
17,-136,-153,60,85,-144,-101,147,118,142,47,-160
17,-136,-153,60,85,-144,-101,148,119,143,47,-159
17,-136,-153,60,85,-144,-100,150,120,143,47,-159
17,-136,-153,60,85,-144,-100,152,122,144,47,-159
17,-136,-153,60,85,-144,-100,153,123,144,47,-159
17,-136,-153,60,85,-144,-99,155,124,145,48,-159
18,-136,-154,59,86,-145,-98,156,126,145,48,-159
18,-136,-154,59,86,-145,-97,156,127,146,49,-158
18,-136,-154,59,86,-145,-97,156,128,147,49,-158
18,-136,-154,59,86,-145,-97,157,129,148,50,-158
19,-135,-154,58,87,-144,-97,157,129,148,50,-158
19,-135,-154,58,87,-144,-96,158,129,149,50,-157
18,-134,-152,58,85,-143,-96,159,130,149,50,-158
18,-134,-152,58,85,-143,-96,160,130,149,50,-158
19,-133,-152,57,86,-142,-96,161,131,150,50,-158
19,-133,-152,57,86,-142,-96,162,132,151,50,-157
19,-134,-153,58,86,-143,-96,163,133,152,50,-157
20,-134,-154,57,87,-144,-96,164,135,153,51,-156
21,-134,-155,57,88,-144,-96,164,135,154,51,-157
22,-133,-155,56,89,-144,-96,165,137,155,52,-156
22,-132,-154,55,88,-143,-96,165,137,156,52,-155
23,-132,-155,55,89,-143,-95,167,139,157,53,-154
23,-131,-154,54,89,-142,-94,168,140,158,54,-154
24,-131,-155,54,90,-143,-95,168,140,158,53,-154
24,-130,-154,53,89,-142,-94,170,141,158,54,-153
24,-130,-154,53,89,-142,-94,171,142,159,54,-152
24,-130,-154,53,89,-142,-93,171,144,160,54,-152
24,-130,-154,53,89,-142,-93,172,145,161,55,-152
25,-130,-155,53,90,-142,-93,172,147,162,55,-152
24,-129,-153,53,89,-141,-93,173,148,163,56,-152
24,-129,-153,53,89,-141,-92,173,149,164,57,-152
24,-128,-152,52,88,-140,-93,173,149,164,56,-153
24,-128,-152,52,88,-140,-92,174,150,165,57,-152
24,-128,-152,52,88,-140,-92,176,151,165,57,-152
24,-128,-152,52,88,-140,-92,177,152,166,58,-152
24,-128,-152,52,88,-140,-92,178,153,167,58,-151
24,-128,-152,52,88,-140,-92,179,154,168,59,-151
24,-128,-152,52,88,-140,-92,180,156,169,60,-150
24,-128,-152,52,88,-140,-93,180,158,170,61,-149
24,-127,-151,52,88,-139,-93,181,160,171,62,-149
24,-126,-150,51,87,-138,-93,182,161,172,63,-148
24,-126,-150,51,87,-138,-92,184,163,173,64,-147
24,-125,-149,51,87,-137,-93,184,163,173,64,-148
24,-125,-149,51,87,-137,-92,186,165,174,64,-147
24,-124,-148,50,86,-136,-91,188,166,176,65,-147
24,-124,-148,50,86,-136,-90,190,168,178,66,-146
25,-124,-149,50,87,-136,-90,191,170,179,66,-146
25,-123,-148,49,87,-135,-90,191,171,179,67,-146
25,-123,-148,49,87,-135,-90,193,174,181,68,-146
26,-122,-148,48,87,-135,-89,194,176,183,70,-145
27,-121,-148,47,88,-134,-89,194,177,183,70,-145
28,-120,-148,46,88,-134,-90,195,177,184,71,-145
28,-119,-147,46,88,-133,-89,197,179,185,72,-144
28,-118,-146,45,87,-132,-89,199,180,187,72,-144
28,-118,-146,45,87,-132,-88,201,182,188,73,-144
29,-118,-147,45,88,-132,-89,202,183,189,73,-144
29,-117,-146,44,88,-131,-88,205,186,191,74,-143
30,-117,-147,44,89,-132,-88,206,189,194,75,-142
31,-116,-147,43,89,-131,-88,207,191,195,76,-141
31,-115,-146,42,89,-130,-87,209,194,198,78,-140
33,-113,-146,40,90,-129,-88,210,195,199,79,-139
33,-112,-145,40,89,-128,-87,212,198,202,81,-138
34,-111,-145,39,90,-128,-87,214,199,204,82,-137
34,-110,-144,38,89,-127,-87,217,202,206,83,-136
35,-110,-145,38,90,-127,-87,219,204,209,85,-135
35,-109,-144,37,90,-126,-87,221,206,211,85,-135
36,-108,-144,36,90,-126,-87,223,210,214,87,-134
36,-107,-143,36,90,-125,-88,224,212,216,87,-134
36,-106,-142,35,89,-124,-87,227,216,219,89,-133
36,-105,-141,35,89,-123,-87,229,220,222,91,-131
37,-104,-141,34,89,-122,-87,231,223,225,93,-131
37,-103,-140,33,89,-121,-86,235,227,229,95,-129
38,-101,-139,32,89,-120,-86,237,230,232,97,-128
39,-100,-139,31,89,-119,-86,241,233,235,99,-127
40,-98,-138,29,89,-118,-85,243,237,239,101,-125
40,-97,-137,29,89,-117,-84,247,242,244,104,-123
41,-95,-136,27,89,-115,-83,250,246,248,106,-121
42,-92,-134,25,88,-113,-83,251,249,251,108,-121
43,-91,-134,24,89,-112,-82,254,255,256,111,-118
44,-88,-132,22,88,-110,-83,255,257,259,113,-118
45,-86,-131,21,88,-108,-83,258,261,263,116,-116
46,-84,-130,19,88,-107,-83,260,264,267,118,-114
47,-82,-129,18,88,-105,-84,263,268,270,121,-113
48,-80,-128,16,88,-104,-84,266,272,275,124,-111
49,-78,-127,15,88,-102,-84,269,276,279,127,-109
50,-76,-126,13,88,-101,-84,272,280,284,129,-107
51,-74,-125,12,88,-99,-85,275,285,288,132,-105
52,-71,-123,10,88,-97,-84,277,290,293,136,-102
54,-69,-123,8,89,-96,-84,280,295,298,139,-100
55,-66,-121,6,88,-93,-85,280,299,302,141,-99
55,-64,-119,5,87,-91,-83,284,304,307,145,-95
55,-62,-117,4,86,-89,-83,285,308,312,148,-93
56,-59,-115,2,86,-87,-83,287,311,316,151,-91
57,-57,-114,0,86,-85,-83,289,315,320,154,-89
57,-55,-112,-1,85,-83,-82,292,320,325,157,-85
58,-53,-111,-2,85,-82,-83,294,323,329,160,-83
59,-50,-109,-4,84,-79,-84,294,325,332,162,-82
60,-48,-108,-6,84,-78,-85,294,328,335,165,-80
61,-46,-107,-7,84,-76,-86,294,331,339,168,-78
61,-44,-105,-8,83,-74,-85,294,335,343,171,-75
61,-42,-103,-9,82,-72,-86,294,337,346,173,-74
61,-40,-101,-10,81,-70,-86,294,339,348,175,-72
62,-38,-100,-12,81,-69,-87,294,340,350,177,-71
62,-37,-99,-12,81,-68,-86,294,341,352,178,-70
61,-36,-97,-12,79,-66,-86,294,342,353,180,-69
61,-35,-96,-13,79,-65,-86,293,343,354,180,-68
61,-33,-94,-14,78,-63,-87,290,341,354,180,-68
61,-33,-94,-14,78,-63,-87,288,340,353,179,-68
61,-33,-94,-14,78,-63,-87,284,338,351,178,-69
60,-33,-93,-13,77,-63,-87,281,335,349,177,-69
59,-33,-92,-13,76,-62,-86,278,332,347,176,-70
58,-34,-92,-12,75,-63,-87,274,327,342,173,-72
57,-36,-93,-10,75,-64,-87,270,321,337,170,-74
55,-39,-94,-8,75,-66,-87,267,316,332,167,-76
53,-41,-94,-6,74,-67,-88,262,308,324,163,-79
51,-44,-95,-3,73,-69,-88,257,301,318,158,-82
49,-48,-97,0,73,-72,-88,252,294,310,153,-85
47,-51,-98,2,73,-74,-89,246,285,302,148,-89
46,-55,-101,5,74,-78,-90,241,278,295,143,-92
44,-58,-102,7,73,-80,-91,234,269,287,137,-96
42,-62,-104,10,73,-83,-91,229,260,279,132,-99
41,-65,-106,12,74,-85,-91,224,252,272,127,-102
39,-69,-108,15,74,-88,-92,219,243,264,121,-106
37,-73,-110,18,74,-91,-92,213,234,255,115,-111
34,-77,-111,22,73,-94,-93,208,224,247,109,-115
32,-82,-114,25,73,-98,-94,203,216,239,104,-120
30,-86,-116,28,73,-101,-95,198,208,231,98,-124
28,-90,-118,31,73,-104,-97,193,200,224,93,-128
26,-94,-120,34,73,-107,-98,187,193,217,89,-131
24,-98,-122,37,73,-110,-99,183,186,210,85,-134
22,-101,-123,40,73,-112,-99,178,179,204,80,-136
20,-104,-124,42,72,-114,-100,174,172,198,76,-139
19,-108,-127,45,73,-117,-102,170,165,191,71,-142
17,-111,-128,47,73,-119,-103,167,159,186,68,-145
16,-114,-130,49,73,-122,-104,163,152,180,64,-148
15,-117,-132,51,74,-124,-104,160,147,175,61,-150
14,-120,-134,53,74,-127,-106,157,142,170,57,-153
12,-122,-134,55,73,-128,-107,153,138,165,54,-155
11,-124,-135,57,73,-129,-108,150,134,162,52,-157
10,-126,-136,58,73,-131,-108,147,130,159,50,-158
9,-128,-137,60,73,-132,-108,144,127,157,48,-159
8,-129,-137,61,73,-133,-108,142,124,154,46,-161
7,-131,-138,62,73,-134,-109,140,121,152,45,-162
6,-133,-139,64,73,-136,-109,139,118,150,43,-163
6,-135,-141,65,74,-138,-109,138,116,149,42,-164
6,-136,-142,65,74,-139,-110,135,113,146,40,-165
5,-137,-142,66,74,-139,-111,134,111,144,38,-166
5,-139,-144,67,75,-141,-112,132,109,141,37,-167
4,-139,-143,68,74,-141,-112,131,108,141,37,-167
4,-140,-144,68,74,-142,-112,129,106,139,36,-168
3,-140,-143,69,73,-141,-113,128,105,137,35,-168
3,-141,-144,69,74,-142,-112,127,104,137,35,-168
3,-141,-144,69,74,-142,-112,127,103,136,34,-169
2,-141,-143,70,73,-142,-113,126,101,135,33,-170
2,-142,-144,70,73,-143,-113,125,99,134,32,-171
2,-142,-144,70,73,-143,-114,124,98,132,32,-172
2,-143,-145,71,74,-144,-114,125,98,133,32,-171
2,-143,-145,71,74,-144,-115,124,98,132,32,-171
2,-144,-146,71,74,-145,-115,123,97,132,33,-171
2,-144,-146,71,74,-145,-115,123,97,132,33,-171
2,-144,-146,71,74,-145,-115,123,97,131,33,-170
2,-143,-145,71,74,-144,-115,123,96,131,34,-170
2,-143,-145,71,74,-144,-114,123,96,131,33,-170
2,-143,-145,71,74,-144,-114,123,95,130,33,-170
3,-142,-145,70,74,-143,-115,123,94,129,31,-171
2,-143,-145,71,74,-144,-114,123,95,129,31,-170
2,-143,-145,71,74,-144,-115,122,94,128,30,-171
2,-143,-145,71,74,-144,-115,122,94,128,29,-171
1,-143,-144,71,73,-143,-116,121,93,127,28,-172
1,-144,-145,72,73,-144,-117,121,93,127,28,-172
0,-145,-145,73,73,-145,-116,121,93,128,29,-172
0,-145,-145,73,73,-145,-117,121,93,127,28,-172
0,-145,-145,73,73,-145,-117,121,92,127,28,-173
-1,-146,-145,74,72,-145,-116,122,93,127,28,-173
-1,-146,-145,74,72,-145,-116,122,93,127,28,-173
-1,-146,-145,74,72,-145,-116,123,93,127,28,-174
-2,-146,-144,74,71,-145,-116,123,93,127,27,-174
-1,-146,-145,74,72,-145,-115,123,94,128,27,-174
-1,-146,-145,74,72,-145,-115,123,95,128,28,-174
-1,-146,-145,74,72,-145,-114,124,95,128,29,-173
-1,-145,-144,73,72,-144,-115,123,94,128,28,-174
-1,-145,-144,73,72,-144,-114,124,94,128,28,-173
-1,-145,-144,73,72,-144,-114,124,94,127,28,-173
-1,-145,-144,73,72,-144,-114,124,93,127,28,-174
-2,-145,-143,74,71,-144,-113,125,94,128,29,-173
-2,-145,-143,74,71,-144,-114,125,94,128,28,-173
-2,-145,-143,74,71,-144,-114,125,94,128,28,-174
-2,-145,-143,74,71,-144,-114,126,94,128,28,-174
-2,-145,-143,74,71,-144,-115,126,95,129,28,-173
-2,-145,-143,74,71,-144,-115,126,95,130,29,-173
-2,-145,-143,74,71,-144,-114,126,95,130,29,-173
-2,-145,-143,74,71,-144,-114,127,96,130,29,-173
-1,-144,-143,73,71,-143,-115,126,95,129,28,-174
-1,-144,-143,73,71,-143,-115,126,94,129,28,-174
-1,-145,-144,73,72,-144,-115,126,94,128,28,-174
-1,-145,-144,73,72,-144,-115,126,93,127,27,-175
-1,-144,-143,73,71,-143,-115,126,93,127,27,-175
-1,-144,-143,73,71,-143,-116,126,93,127,27,-175
-2,-144,-142,73,70,-143,-116,126,94,127,27,-175
-2,-144,-142,73,70,-143,-117,126,94,127,27,-175
-2,-143,-141,73,70,-142,-116,126,94,127,27,-175
-2,-143,-141,73,70,-142,-116,127,95,127,27,-175
-2,-142,-140,72,69,-141,-116,127,95,127,27,-176
-1,-142,-141,72,70,-141,-117,126,94,125,26,-177
-1,-142,-141,72,70,-141,-117,126,93,125,26,-177
"
		-1","
		-142","
		-141","
		72","
		70","
		-141","
		-116","
		126","
		93","
		125","
		26","
		-177"
-1,-142,-141,72,70,-141,-116,126,93,125,26,-178
0,-142,-142,71,71,-142,-116,126,93,125,26,-178
0,-141,-141,71,71,-141,-115,126,93,125,26,-178
0,-141,-141,71,71,-141,-115,126,93,125,27,-177
0,-141,-141,71,71,-141,-115,126,93,125,27,-177
0,-141,-141,71,71,-141,-115,126,93,126,27,-177
1,-141,-142,70,72,-141,-115,125,92,125,26,-178
1,-141,-142,70,72,-141,-116,126,92,124,25,-178
1,-140,-141,70,71,-140,-116,126,91,124,25,-178
1,-140,-141,70,71,-140,-116,126,91,124,25,-178
1,-140,-141,70,71,-140,-116,125,90,124,25,-178
2,-140,-142,69,72,-141,-116,125,90,124,25,-178
2,-140,-142,69,72,-141,-116,125,90,125,25,-178
2,-140,-142,69,72,-141,-116,124,90,125,25,-177
1,-141,-142,70,72,-141,-116,124,90,125,25,-177
2,-140,-142,69,72,-141,-115,124,90,125,25,-177
3,-140,-143,69,73,-141,-116,124,90,124,24,-177
3,-140,-143,69,73,-141,-115,124,90,124,24,-177
3,-140,-143,69,73,-141,-116,125,90,123,24,-178
4,-139,-143,68,74,-141,-116,125,90,123,24,-178
5,-139,-144,67,75,-141,-117,124,89,123,23,-179
5,-139,-144,67,75,-141,-117,124,89,122,23,-178
4,-138,-142,67,73,-140,-117,123,89,122,23,-178
5,-138,-143,67,74,-140,-117,123,89,123,24,-178
5,-137,-142,66,74,-139,-116,123,89,123,24,-178
5,-138,-143,67,74,-140,-115,123,88,123,24,-178
5,-138,-143,67,74,-140,-115,123,87,123,24,-178
5,-138,-143,67,74,-140,-115,123,87,122,23,-179
5,-138,-143,67,74,-140,-115,123,86,122,23,-179
5,-138,-143,67,74,-140,-115,123,86,122,23,-179
4,-139,-143,68,74,-141,-114,124,86,123,23,-179
4,-139,-143,68,74,-141,-114,123,86,123,23,-179
4,-139,-143,68,74,-141,-113,123,86,123,23,-179
4,-139,-143,68,74,-141,-113,123,86,123,23,-178
4,-140,-144,68,74,-142,-113,123,86,123,23,-179
4,-140,-144,68,74,-142,-114,122,85,123,22,-179
4,-140,-144,68,74,-142,-114,122,85,122,22,-179
4,-140,-144,68,74,-142,-114,122,84,121,21,-180
4,-140,-144,68,74,-142,-115,122,83,120,20,-181
4,-140,-144,68,74,-142,-116,122,82,119,20,-181
4,-140,-144,68,74,-142,-116,121,81,119,19,-182
4,-140,-144,68,74,-142,-117,120,81,118,19,-182
3,-140,-143,69,73,-141,-117,119,80,118,19,-182
2,-141,-143,70,73,-142,-117,120,81,119,20,-181
2,-141,-143,70,73,-142,-117,119,80,118,19,-181
1,-142,-143,71,72,-142,-117,119,79,118,19,-181
0,-144,-144,72,72,-144,-116,119,79,117,19,-181
-1,-144,-143,73,71,-143,-117,119,78,116,18,-181
-1,-144,-143,73,71,-143,-117,119,77,116,17,-182
-1,-145,-144,73,72,-144,-118,118,76,115,17,-182
-1,-145,-144,73,72,-144,-118,118,76,114,17,-182
-1,-145,-144,73,72,-144,-118,118,76,115,17,-183
-1,-145,-144,73,72,-144,-118,118,76,115,17,-182
-1,-145,-144,73,72,-144,-118,117,76,115,18,-182
-2,-145,-143,74,71,-144,-117,118,76,115,18,-182
-2,-146,-144,74,71,-145,-117,117,75,115,18,-182
-3,-146,-143,75,70,-144,-118,117,74,114,17,-183
-3,-146,-143,75,70,-144,-118,117,74,113,16,-184
-3,-146,-143,75,70,-144,-118,117,73,112,15,-184
-4,-146,-142,75,69,-144,-117,117,74,112,15,-184
-4,-146,-142,75,69,-144,-118,117,74,112,14,-184
-4,-146,-142,75,69,-144,-118,117,74,112,14,-184
-4,-146,-142,75,69,-144,-118,117,74,112,14,-184
-4,-146,-142,75,69,-144,-118,116,74,112,14,-184
-4,-146,-142,75,69,-144,-118,116,74,112,15,-184
-4,-146,-142,75,69,-144,-118,116,74,112,15,-183
-4,-146,-142,75,69,-144,-117,117,74,112,15,-183
-3,-146,-143,75,70,-144,-118,116,73,111,13,-184
-3,-146,-143,75,70,-144,-118,116,73,111,12,-184
-3,-145,-142,74,70,-143,-119,116,73,110,12,-185
-3,-145,-142,74,70,-143,-119,116,73,111,12,-185
-3,-146,-143,75,70,-144,-120,116,73,111,11,-185
-3,-146,-143,75,70,-144,-120,115,73,110,11,-185
-4,-147,-143,76,70,-145,-120,115,74,111,12,-184
-4,-147,-143,76,70,-145,-120,115,73,111,12,-184
-5,-147,-142,76,69,-144,-120,115,73,111,11,-184
-5,-147,-142,76,69,-144,-120,115,72,111,11,-184
-5,-147,-142,76,69,-144,-120,115,72,111,11,-184
-4,-147,-143,76,70,-145,-119,115,72,111,11,-184
-4,-147,-143,76,70,-145,-119,115,72,111,11,-184
-4,-147,-143,76,70,-145,-119,115,72,110,11,-184
-4,-147,-143,76,70,-145,-119,114,72,110,11,-183
-4,-148,-144,76,70,-146,-119,114,72,110,11,-183
-4,-148,-144,76,70,-146,-120,114,71,109,10,-184
-4,-148,-144,76,70,-146,-120,113,70,108,10,-184
-4,-149,-145,77,71,-147,-119,114,71,109,10,-183
-5,-149,-144,77,70,-146,-119,114,71,109,10,-183
-5,-149,-144,77,70,-146,-119,114,71,109,9,-183
-6,-149,-143,78,69,-146,-120,114,70,108,9,-183
-6,-149,-143,78,69,-146,-120,114,70,108,9,-183
-5,-148,-143,77,69,-145,-120,114,71,108,9,-183
-5,-148,-143,77,69,-145,-120,114,71,108,9,-182
-5,-148,-143,77,69,-145,-120,114,71,109,10,-182
-5,-147,-142,76,69,-144,-121,114,70,108,9,-183
-5,-146,-141,76,68,-143,-121,114,71,108,9,-182
-5,-146,-141,76,68,-143,-121,114,71,108,9,-183
-6,-146,-140,76,67,-143,-121,114,71,108,8,-183
-6,-146,-140,76,67,-143,-121,114,71,108,8,-184
-6,-146,-140,76,67,-143,-121,114,70,107,7,-184
-6,-146,-140,76,67,-143,-122,114,70,107,7,-184
-6,-147,-141,77,68,-144,-121,115,72,108,7,-183
-6,-147,-141,77,68,-144,-121,115,72,108,7,-183
-6,-147,-141,77,68,-144,-121,114,72,108,7,-183
-7,-148,-141,78,67,-144,-122,114,72,108,7,-183
-7,-148,-141,78,67,-144,-122,114,71,108,7,-183
-7,-148,-141,78,67,-144,-122,114,71,108,8,-184
-7,-148,-141,78,67,-144,-122,114,71,109,8,-183
-7,-148,-141,78,67,-144,-122,114,70,108,8,-184
-7,-148,-141,78,67,-144,-123,114,70,108,7,-184
-7,-148,-141,78,67,-144,-123,114,70,107,7,-184
-7,-148,-141,78,67,-144,-123,114,70,108,7,-184
-8,-148,-140,78,66,-144,-123,114,71,108,8,-183
-8,-149,-141,79,67,-145,-123,114,71,108,7,-184
-9,-149,-140,79,66,-144,-124,113,70,108,7,-184
-9,-149,-140,79,66,-144,-124,113,70,108,7,-184
-9,-149,-140,79,66,-144,-124,113,69,108,7,-184
-10,-149,-139,80,65,-144,-123,114,70,108,7,-183
-10,-150,-140,80,65,-145,-123,114,69,107,6,-184
-10,-150,-140,80,65,-145,-123,114,69,107,5,-184
-9,-150,-141,80,66,-145,-123,114,69,106,4,-185
-9,-150,-141,80,66,-145,-124,114,69,106,3,-185
-9,-150,-141,80,66,-145,-124,113,69,105,2,-186
-8,-150,-142,79,67,-146,-125,112,68,104,1,-188
-7,-149,-142,78,68,-145,-125,112,68,104,2,-187
-7,-149,-142,78,68,-145,-124,112,68,104,2,-187
-7,-149,-142,78,68,-145,-124,112,67,103,2,-187
-7,-149,-142,78,68,-145,-124,113,67,103,3,-187
-7,-149,-142,78,68,-145,-124,113,67,104,3,-186
-7,-149,-142,78,68,-145,-124,114,67,104,3,-185
-7,-149,-142,78,68,-145,-123,114,67,105,4,-185
-6,-149,-143,78,69,-146,-124,113,67,105,4,-186
-5,-148,-143,77,69,-145,-123,114,67,106,5,-185
-5,-148,-143,77,69,-145,-123,114,68,106,6,-184
-5,-148,-143,77,69,-145,-122,114,68,106,6,-184
-5,-148,-143,77,69,-145,-122,114,69,106,7,-183
-5,-148,-143,77,69,-145,-122,115,69,106,7,-183
-5,-147,-142,76,69,-144,-123,114,68,105,5,-184
-5,-147,-142,76,69,-144,-124,114,68,105,4,-185
-6,-147,-141,77,68,-144,-123,115,68,105,5,-184
-7,-147,-140,77,67,-143,-124,115,68,104,4,-185
-7,-147,-140,77,67,-143,-124,115,68,104,4,-185
-7,-147,-140,77,67,-143,-124,115,69,104,4,-185
-7,-147,-140,77,67,-143,-124,115,69,104,4,-185
-7,-146,-139,77,66,-142,-124,115,69,105,4,-184
-6,-146,-140,76,67,-143,-124,114,68,104,4,-185
-6,-145,-139,76,67,-142,-124,115,68,105,4,-185
-6,-145,-139,76,67,-142,-123,115,67,105,4,-185
-6,-145,-139,76,67,-142,-123,116,67,105,4,-185
-6,-145,-139,76,67,-142,-123,116,67,105,3,-185
-6,-145,-139,76,67,-142,-124,115,67,105,3,-186
-6,-146,-140,76,67,-143,-124,115,67,105,2,-186
-7,-146,-139,77,66,-142,-124,115,68,106,3,-186
-7,-146,-139,77,66,-142,-124,115,68,106,3,-187
-8,-146,-138,77,65,-142,-125,114,68,106,2,-187
-8,-146,-138,77,65,-142,-126,114,68,105,2,-187
-8,-146,-138,77,65,-142,-126,114,67,105,2,-187
-9,-146,-137,78,64,-141,-127,114,67,105,2,-187
-9,-147,-138,78,65,-142,-126,115,68,105,2,-186
-8,-146,-138,77,65,-142,-126,114,67,104,1,-187
-8,-146,-138,77,65,-142,-126,114,68,105,2,-187
-8,-146,-138,77,65,-142,-126,114,68,105,2,-187
-8,-146,-138,77,65,-142,-126,114,68,105,1,-186
-8,-145,-137,77,65,-141,-125,114,68,105,1,-186
-8,-145,-137,77,65,-141,-125,114,69,105,1,-186
-9,-146,-137,78,64,-141,-125,114,69,105,1,-186
-9,-146,-137,78,64,-141,-125,114,69,105,1,-187
-9,-146,-137,78,64,-141,-125,114,69,104,1,-187
-9,-146,-137,78,64,-141,-124,114,68,104,1,-187
-9,-146,-137,78,64,-141,-124,115,68,104,1,-187
-8,-145,-137,77,65,-141,-124,115,68,103,1,-187
-8,-145,-137,77,65,-141,-124,115,68,104,1,-187
-8,-144,-136,76,64,-140,-125,114,67,103,0,-188
-8,-145,-137,77,65,-141,-124,115,68,104,1,-187
-8,-145,-137,77,65,-141,-124,115,68,104,1,-188
-8,-145,-137,77,65,-141,-124,114,68,104,0,-189
-9,-145,-136,77,64,-140,-124,114,68,104,-1,-189
-9,-146,-137,78,64,-141,-124,114,68,104,-1,-190
-9,-146,-137,78,64,-141,-124,114,68,104,-1,-190
-9,-146,-137,78,64,-141,-125,114,68,104,-1,-190
-10,-146,-136,78,63,-141,-124,115,69,104,-1,-189
-9,-146,-137,78,64,-141,-125,114,68,104,-2,-190
-9,-146,-137,78,64,-141,-125,113,68,104,-1,-189
-10,-146,-136,78,63,-141,-124,114,68,105,0,-188
-10,-147,-137,79,64,-142,-125,114,67,104,-1,-189
-10,-147,-137,79,64,-142,-125,113,67,104,-2,-189
-10,-147,-137,79,64,-142,-125,113,66,104,-2,-189
-10,-148,-138,79,64,-143,-124,114,66,104,-2,-189
-10,-148,-138,79,64,-143,-124,114,66,104,-2,-189
-10,-147,-137,79,64,-142,-124,115,65,103,-2,-189
-9,-147,-138,78,65,-142,-124,115,65,103,-2,-189
-9,-147,-138,78,65,-142,-123,115,66,104,-2,-189
-8,-147,-139,78,66,-143,-124,113,65,103,-3,-191
-8,-147,-139,78,66,-143,-124,113,65,102,-3,-191
-8,-147,-139,78,66,-143,-124,113,65,102,-3,-191
-8,-146,-138,77,65,-142,-124,113,65,103,-3,-191
-7,-146,-139,77,66,-142,-124,113,65,103,-4,-191
-7,-146,-139,77,66,-142,-123,113,65,103,-4,-192
-7,-146,-139,77,66,-142,-123,113,64,103,-5,-191
-7,-146,-139,77,66,-142,-123,113,65,103,-5,-191
-7,-146,-139,77,66,-142,-123,114,65,103,-5,-191
-7,-146,-139,77,66,-142,-122,114,65,103,-5,-191
-7,-146,-139,77,66,-142,-122,114,66,103,-5,-191
-7,-145,-138,76,66,-141,-123,113,65,102,-5,-192
-6,-145,-139,76,67,-142,-123,113,65,103,-5,-191
-6,-144,-138,75,66,-141,-123,113,66,103,-5,-191
-7,-144,-137,76,65,-140,-122,113,66,103,-4,-190
-7,-144,-137,76,65,-140,-123,113,65,103,-4,-190
-7,-145,-138,76,66,-141,-123,113,65,103,-5,-191
-8,-145,-137,77,65,-141,-123,114,66,103,-4,-190
-9,-146,-137,78,64,-141,-123,113,65,102,-5,-190
-10,-146,-136,78,63,-141,-123,114,66,103,-5,-190
-10,-147,-137,79,64,-142,-124,113,66,103,-6,-191
-10,-147,-137,79,64,-142,-124,113,66,103,-6,-192
-10,-147,-137,79,64,-142,-124,113,66,103,-6,-191
-10,-147,-137,79,64,-142,-124,113,66,104,-6,-191
-9,-146,-137,78,64,-141,-125,113,65,103,-7,-191
-9,-146,-137,78,64,-141,-124,113,65,103,-6,-191
-9,-146,-137,78,64,-141,-124,113,65,103,-6,-191
-9,-146,-137,78,64,-141,-124,113,65,102,-7,-191
-9,-146,-137,78,64,-141,-124,113,65,102,-7,-191
-9,-146,-137,78,64,-141,-124,112,65,101,-7,-191
-10,-146,-136,78,63,-141,-123,113,66,102,-7,-190
-10,-147,-137,79,64,-142,-124,113,66,102,-7,-190
-10,-147,-137,79,64,-142,-124,113,66,101,-7,-190
-10,-147,-137,79,64,-142,-124,113,67,101,-7,-190
-10,-147,-137,79,64,-142,-124,113,67,101,-7,-190
-10,-147,-137,79,64,-142,-125,114,67,101,-7,-190
-10,-146,-136,78,63,-141,-125,114,67,101,-7,-190
-9,-146,-137,78,64,-141,-125,114,67,101,-8,-191
-9,-146,-137,78,64,-141,-124,114,67,101,-7,-190
-9,-145,-136,77,64,-140,-124,114,67,102,-7,-190
-8,-144,-136,76,64,-140,-125,113,67,101,-7,-191
-9,-145,-136,77,64,-140,-124,113,67,102,-6,-190
-9,-145,-136,77,64,-140,-123,113,67,101,-6,-190
-10,-144,-134,77,62,-139,-124,113,67,101,-7,-190
-10,-144,-134,77,62,-139,-124,113,67,100,-6,-190
-10,-145,-135,78,63,-140,-124,113,67,100,-7,-190
-11,-145,-134,78,62,-139,-123,114,68,100,-6,-190
-11,-145,-134,78,62,-139,-123,114,68,100,-7,-190
-11,-145,-134,78,62,-139,-123,114,68,100,-7,-190
-11,-145,-134,78,62,-139,-123,114,68,100,-7,-191
-12,-145,-133,79,61,-139,-123,114,67,100,-7,-191
-12,-145,-133,79,61,-139,-123,113,67,100,-8,-192
-13,-145,-132,79,60,-138,-122,113,67,100,-8,-192
-13,-145,-132,79,60,-138,-122,113,67,99,-8,-192
-13,-145,-132,79,60,-138,-122,113,67,99,-9,-192
-13,-146,-133,80,60,-139,-122,114,68,100,-8,-192
-14,-146,-132,80,59,-139,-122,114,67,99,-9,-192
-14,-147,-133,81,60,-140,-123,114,66,98,-9,-192
-14,-147,-133,81,60,-140,-123,114,66,98,-9,-192
-14,-147,-133,81,60,-140,-124,114,66,98,-10,-192
-15,-147,-132,81,59,-139,-124,115,68,99,-9,-192
-15,-147,-132,81,59,-139,-124,114,68,100,-9,-192
-14,-147,-133,81,60,-140,-125,113,68,99,-10,-193
-14,-146,-132,80,59,-139,-125,113,68,99,-10,-193
-14,-147,-133,81,60,-140,-125,114,68,99,-10,-194
-15,-146,-131,81,58,-138,-126,113,68,99,-10,-194
-15,-146,-131,81,58,-138,-126,113,68,98,-11,-194
-15,-146,-131,81,58,-138,-125,113,67,98,-11,-194
-15,-146,-131,81,58,-138,-125,114,67,98,-12,-194
-16,-146,-130,81,57,-138,-124,114,68,99,-11,-194
-16,-146,-130,81,57,-138,-124,114,68,99,-10,-194
-15,-146,-131,81,58,-138,-125,114,68,99,-11,-195
-15,-145,-130,80,58,-137,-125,114,68,99,-11,-194
-15,-145,-130,80,58,-137,-126,114,69,99,-10,-194
-15,-146,-131,81,58,-138,-126,114,68,99,-10,-194
-15,-146,-131,81,58,-138,-126,114,68,99,-10,-194
-15,-146,-131,81,58,-138,-126,114,68,98,-10,-195
-16,-146,-130,81,57,-138,-125,115,68,99,-10,-194
-15,-146,-131,81,58,-138,-126,114,67,98,-11,-195
-15,-146,-131,81,58,-138,-125,114,67,98,-10,-195
-15,-146,-131,81,58,-138,-125,114,67,98,-10,-195
-16,-146,-130,81,57,-138,-124,115,68,99,-10,-193
-16,-146,-130,81,57,-138,-124,115,67,99,-10,-193
-16,-146,-130,81,57,-138,-124,115,67,99,-10,-193
-17,-146,-129,82,56,-137,-124,114,66,99,-10,-194
-17,-146,-129,82,56,-137,-124,114,66,99,-11,-194
-18,-146,-128,82,55,-137,-124,113,65,98,-12,-195
-18,-146,-128,82,55,-137,-125,113,65,98,-13,-195
-18,-146,-128,82,55,-137,-125,113,65,98,-13,-196
-19,-146,-127,83,54,-136,-125,114,67,99,-12,-195
-19,-146,-127,83,54,-136,-125,114,67,99,-13,-196
-19,-146,-127,83,54,-136,-125,114,67,100,-13,-196
-19,-146,-127,83,54,-136,-125,114,67,100,-13,-196
-19,-146,-127,83,54,-136,-125,114,67,99,-13,-196
-19,-146,-127,83,54,-136,-125,114,67,99,-13,-196
-19,-146,-127,83,54,-136,-125,114,67,100,-12,-196
-19,-146,-127,83,54,-136,-125,114,67,100,-12,-196
-19,-146,-127,83,54,-136,-125,114,67,100,-12,-196
-19,-146,-127,83,54,-136,-125,114,67,100,-12,-196
-19,-146,-127,83,54,-136,-125,114,67,100,-12,-196
-19,-146,-127,83,54,-136,-125,114,67,100,-13,-196
-19,-146,-127,83,54,-136,-124,114,67,100,-13,-196
-20,-146,-126,83,53,-136,-124,114,67,100,-13,-196
-20,-146,-126,83,53,-136,-124,114,68,100,-13,-196
-20,-146,-126,83,53,-136,-124,114,68,100,-13,-196
-20,-146,-126,83,53,-136,-124,115,67,99,-13,-196
-20,-145,-125,83,53,-135,-124,114,67,99,-13,-197
-21,-146,-125,84,52,-135,-125,114,67,98,-13,-197
"
		-22","
		-146","
		-124","
		84","
		51","
		-135","
		-124","
		115","
		67","
		98","
		-12","
		-197"
-22,-146,-124,84,51,-135,-125,115,67,98,-12,-197
-22,-147,-125,85,52,-136,-125,114,66,97,-12,-198
-23,-147,-124,85,51,-135,-126,113,66,97,-13,-199
-23,-148,-125,86,51,-136,-126,114,67,98,-12,-198
-22,-148,-126,85,52,-137,-127,113,66,97,-14,-199
-22,-148,-126,85,52,-137,-127,113,67,96,-14,-199
-22,-148,-126,85,52,-137,-128,113,66,96,-15,-200
-22,-148,-126,85,52,-137,-128,113,66,95,-15,-200
-22,-148,-126,85,52,-137,-128,113,67,95,-15,-200
-22,-149,-127,86,53,-138,-127,114,68,96,-14,-199
-22,-149,-127,86,53,-138,-127,113,67,96,-14,-199
-23,-150,-127,87,52,-138,-127,113,67,96,-14,-199
-23,-150,-127,87,52,-138,-127,113,67,96,-14,-199
-23,-150,-127,87,52,-138,-127,112,66,96,-14,-199
-23,-150,-127,87,52,-138,-128,112,66,95,-15,-199
-24,-151,-127,88,52,-139,-127,112,66,95,-14,-199
-24,-151,-127,88,52,-139,-128,112,65,95,-15,-199
-24,-151,-127,88,52,-139,-128,112,65,94,-15,-200
-24,-151,-127,88,52,-139,-129,112,65,94,-16,-200
-24,-151,-127,88,52,-139,-130,112,65,93,-17,-201
-24,-152,-128,88,52,-140,-130,111,65,93,-17,-202
-24,-151,-127,88,52,-139,-131,112,66,93,-17,-202
-24,-151,-127,88,52,-139,-130,112,66,93,-17,-202
-24,-150,-126,87,51,-138,-130,112,65,93,-17,-202
-24,-150,-126,87,51,-138,-131,112,65,93,-18,-202
-24,-150,-126,87,51,-138,-131,112,65,93,-18,-201
-24,-150,-126,87,51,-138,-131,112,64,93,-18,-201
-24,-150,-126,87,51,-138,-131,112,64,92,-18,-202
-24,-150,-126,87,51,-138,-132,112,64,92,-18,-202
-24,-151,-127,88,52,-139,-132,111,64,91,-19,-202
-25,-151,-126,88,51,-138,-133,111,63,91,-20,-203
-25,-151,-126,88,51,-138,-134,110,62,90,-20,-204
-25,-151,-126,88,51,-138,-134,109,62,90,-21,-204
-26,-152,-126,89,50,-139,-134,110,62,91,-20,-203
-26,-153,-127,90,51,-140,-134,109,62,90,-21,-204
-26,-153,-127,90,51,-140,-134,109,61,89,-21,-204
-26,-154,-128,90,51,-141,-133,110,62,90,-21,-204
-26,-154,-128,90,51,-141,-133,110,62,89,-21,-204
-25,-154,-129,90,52,-141,-135,108,61,88,-23,-205
-25,-154,-129,90,52,-141,-135,108,61,88,-23,-206
-24,-154,-130,89,53,-142,-135,108,61,88,-23,-206
-23,-154,-131,89,54,-142,-135,109,61,88,-23,-206
-22,-154,-132,88,55,-143,-135,109,61,88,-24,-207
-22,-154,-132,88,55,-143,-134,109,61,89,-23,-207
-21,-153,-132,87,56,-142,-133,111,62,90,-22,-206
-21,-153,-132,87,56,-142,-132,112,63,91,-21,-206
-21,-152,-131,87,55,-141,-131,112,63,91,-22,-206
-20,-151,-131,86,56,-141,-130,114,64,92,-21,-205
-19,-150,-131,85,56,-140,-130,114,65,91,-21,-206
-17,-150,-133,84,58,-141,-130,114,65,91,-21,-206
-17,-150,-133,84,58,-141,-130,115,65,91,-21,-206
-16,-149,-133,83,59,-141,-130,115,66,92,-21,-205
-15,-150,-135,83,60,-142,-130,116,66,92,-20,-205
-14,-150,-136,82,61,-143,-132,115,65,91,-21,-206
-13,-151,-138,82,63,-144,-133,115,65,91,-21,-206
-13,-151,-138,82,63,-144,-133,115,66,91,-21,-206
-12,-151,-139,82,64,-145,-133,116,66,92,-20,-205
-11,-152,-141,82,65,-146,-132,117,67,92,-20,-205
-10,-152,-142,81,66,-147,-131,118,68,93,-20,-205
-10,-152,-142,81,66,-147,-130,119,68,93,-19,-205
-10,-151,-141,81,66,-146,-130,119,68,92,-20,-206
-9,-151,-142,80,67,-146,-129,120,68,92,-20,-205
-9,-151,-142,80,67,-146,-129,120,69,91,-21,-205
-9,-151,-142,80,67,-146,-129,120,70,91,-21,-205
-8,-150,-142,79,67,-146,-130,120,69,90,-21,-205
-8,-150,-142,79,67,-146,-129,120,69,90,-21,-205
-8,-150,-142,79,67,-146,-130,120,69,90,-21,-205
-8,-150,-142,79,67,-146,-130,121,70,90,-20,-205
-8,-151,-143,80,68,-147,-129,121,70,91,-19,-204
-9,-151,-142,80,67,-146,-130,120,70,90,-20,-205
-9,-151,-142,80,67,-146,-132,119,69,90,-20,-205
-9,-151,-142,80,67,-146,-134,117,68,90,-20,-206
-9,-150,-141,80,66,-145,-136,115,67,89,-21,-206
-9,-150,-141,80,66,-145,-138,114,66,89,-21,-206
-9,-150,-141,80,66,-145,-140,112,65,89,-21,-206
-9,-151,-142,80,67,-146,-141,112,64,89,-21,-205
-8,-151,-143,80,68,-147,-141,111,64,89,-20,-205
-8,-151,-143,80,68,-147,-141,112,64,89,-20,-205
-8,-151,-143,80,68,-147,-140,112,64,89,-20,-205
-8,-151,-143,80,68,-147,-140,113,65,89,-20,-204
-8,-151,-143,80,68,-147,-139,113,65,89,-20,-204
-7,-151,-144,79,69,-147,-140,112,64,88,-21,-206
-8,-151,-143,80,68,-147,-139,112,65,89,-20,-205
-8,-151,-143,80,68,-147,-140,111,64,88,-21,-206
-9,-151,-142,80,67,-146,-140,110,62,87,-22,-207
-10,-152,-142,81,66,-147,-140,110,62,86,-23,-208
-11,-152,-141,82,65,-146,-141,109,60,84,-25,-209
-13,-153,-140,83,64,-146,-140,109,60,83,-25,-210
-14,-153,-139,84,63,-146,-139,109,59,82,-26,-212
-15,-153,-138,84,62,-145,-138,110,59,82,-26,-212
-16,-153,-137,85,61,-145,-138,109,58,81,-27,-213
-17,-153,-136,85,60,-144,-138,109,58,81,-27,-213
-17,-152,-135,85,59,-143,-137,109,58,81,-27,-214
-17,-152,-135,85,59,-143,-136,108,59,81,-27,-214
-17,-152,-135,85,59,-143,-137,108,59,81,-28,-214
-17,-152,-135,85,59,-143,-137,108,59,81,-28,-214
-16,-152,-136,84,60,-144,-137,108,59,81,-28,-214
-16,-152,-136,84,60,-144,-138,108,59,80,-28,-214
-16,-152,-136,84,60,-144,-139,108,59,80,-28,-214
-15,-152,-137,84,61,-144,-140,107,58,79,-28,-214
-15,-152,-137,84,61,-144,-140,106,59,79,-28,-214
-15,-153,-138,84,62,-145,-140,107,60,80,-28,-213
-16,-153,-137,85,61,-145,-140,106,59,79,-28,-213
-16,-154,-138,85,61,-146,-140,106,59,79,-28,-214
-16,-154,-138,85,61,-146,-140,106,60,79,-28,-214
-17,-154,-137,86,60,-145,-139,107,60,80,-28,-214
-18,-153,-135,86,59,-144,-138,108,60,80,-28,-214
-18,-152,-134,85,58,-143,-139,107,60,80,-28,-215
-18,-151,-133,85,58,-142,-139,108,60,80,-28,-214
-18,-151,-133,85,58,-142,-138,108,60,80,-27,-214
-18,-150,-132,84,57,-141,-138,108,60,80,-27,-214
-18,-150,-132,84,57,-141,-138,108,60,80,-27,-214
-18,-151,-133,85,58,-142,-138,107,60,79,-27,-214
-19,-151,-132,85,57,-141,-138,107,60,79,-28,-214
-19,-151,-132,85,57,-141,-138,107,60,79,-28,-215
-19,-151,-132,85,57,-141,-138,107,60,79,-28,-215
-19,-151,-132,85,57,-141,-139,107,60,79,-29,-215
-19,-151,-132,85,57,-141,-139,107,60,78,-29,-215
-19,-151,-132,85,57,-141,-139,108,60,78,-29,-215
-19,-151,-132,85,57,-141,-139,109,60,78,-30,-215
-19,-152,-133,86,57,-142,-137,110,61,78,-29,-215
-19,-152,-133,86,57,-142,-136,112,63,78,-30,-216
-19,-154,-135,87,58,-144,-134,114,65,78,-31,-217
-19,-155,-136,87,59,-145,-131,118,69,80,-32,-218
-19,-157,-138,88,60,-147,-129,121,72,80,-34,-220
-19,-158,-139,89,60,-148,-126,126,76,82,-34,-221
-19,-159,-140,89,61,-149,-125,129,80,84,-35,-222
-18,-159,-141,89,62,-150,-123,132,86,87,-34,-222
-16,-159,-143,88,64,-151,-123,135,93,92,-32,-222
-14,-158,-144,86,65,-151,-122,140,102,100,-28,-219
-10,-155,-145,83,68,-150,-123,144,113,110,-23,-216
-7,-152,-145,80,69,-148,-121,152,126,123,-15,-211
-2,-148,-146,75,72,-147,-118,163,144,138,-6,-206
2,-142,-144,70,73,-143,-115,177,165,158,7,-198
7,-132,-139,63,73,-135,-111,193,190,184,24,-187
13,-119,-132,53,73,-125,-110,208,217,213,45,-173
18,-101,-119,42,69,-110,-112,216,244,247,71,-155
25,-77,-102,26,64,-89,-121,215,271,285,101,-134
32,-50,-82,9,57,-66,-138,201,293,328,136,-108
38,-21,-59,-8,49,-40,-161,174,310,370,172,-81
44,5,-39,-24,42,-17,-190,136,319,408,204,-57
47,26,-21,-36,34,3,-218,94,327,444,233,-37
45,42,-3,-43,24,20,-244,49,330,472,254,-22
40,50,10,-45,15,30,-263,5,326,488,264,-15
30,47,17,-38,7,32,-271,-30,316,489,263,-15
19,36,17,-27,1,27,-274,-58,293,466,246,-27
4,17,13,-10,-4,15,-270,-79,253,420,215,-46
-12,-6,6,9,-9,0,-263,-95,194,351,172,-73
-26,-33,-7,30,-9,-20,-253,-103,124,266,120,-105
-38,-60,-22,49,-8,-41,-242,-104,52,178,66,-139
-48,-85,-37,67,-5,-61,-232,-101,-11,100,17,-170
-55,-104,-49,80,-3,-76,-225,-96,-62,37,-23,-197
-59,-119,-60,89,1,-89,-221,-90,-94,-4,-52,-217
-60,-130,-70,95,5,-100,-219,-82,-106,-24,-70,-231
-58,-138,-80,98,11,-109,-221,-75,-106,-28,-78,-239
-54,-143,-89,99,18,-116,-226,-67,-97,-24,-81,-243
-49,-148,-99,99,25,-123,-230,-56,-85,-16,-80,-245
-45,-153,-108,99,32,-130,-230,-43,-70,-6,-77,-245
-40,-158,-118,99,39,-138,-229,-28,-56,2,-74,-244
-34,-162,-128,98,47,-145,-226,-13,-42,10,-71,-243
-29,-165,-136,97,54,-150,-221,2,-28,18,-68,-242
-25,-169,-144,97,60,-156,-212,17,-15,26,-64,-240
-22,-172,-150,97,64,-161,-202,33,-2,33,-60,-238
-18,-174,-156,96,69,-165,-191,49,11,42,-55,-236
-15,-173,-158,94,72,-165,-183,61,22,49,-52,-234
-13,-171,-158,92,73,-164,-172,75,36,58,-47,-230
-11,-167,-156,89,73,-161,-163,89,49,67,-41,-227
-9,-161,-152,85,72,-156,-156,100,60,74,-37,-224
-8,-154,-146,81,69,-150,-149,111,70,82,-32,-219
-7,-148,-141,78,67,-144,-145,119,78,88,-28,-217
-7,-143,-136,75,65,-139,-140,127,86,93,-24,-213
-7,-139,-132,73,63,-135,-138,131,90,96,-22,-212
-7,-137,-130,72,62,-133,-136,135,94,99,-20,-209
-7,-135,-128,71,61,-131,-135,136,95,100,-20,-209
-7,-134,-127,71,60,-130,-134,138,97,102,-19,-209
-6,-134,-128,70,61,-131,-134,138,97,101,-20,-210
-6,-134,-128,70,61,-131,-133,138,98,101,-20,-210
-6,-134,-128,70,61,-131,-132,140,99,102,-20,-210
-6,-134,-128,70,61,-131,-131,141,100,103,-20,-210
-6,-134,-128,70,61,-131,-130,142,101,103,-20,-210
-7,-135,-128,71,61,-131,-129,144,102,104,-19,-209
-7,-135,-128,71,61,-131,-128,146,103,104,-20,-209
-7,-135,-128,71,61,-131,-128,146,104,104,-19,-209
-7,-135,-128,71,61,-131,-128,147,105,105,-19,-209
-7,-135,-128,71,61,-131,-127,147,106,106,-19,-209
-7,-135,-128,71,61,-131,-127,148,108,107,-18,-208
-6,-135,-129,71,62,-132,-127,148,109,108,-17,-208
-6,-135,-129,71,62,-132,-127,149,110,109,-16,-207
-6,-135,-129,71,62,-132,-126,150,111,110,-15,-206
-5,-135,-130,70,63,-132,-127,150,111,110,-15,-206
-5,-135,-130,70,63,-132,-127,151,112,110,-14,-206
-5,-135,-130,70,63,-132,-126,152,113,110,-14,-205
-5,-134,-129,70,62,-131,-126,153,114,111,-14,-205
-5,-134,-129,70,62,-131,-126,154,115,112,-13,-205
-5,-134,-129,70,62,-131,-126,154,116,113,-13,-205
-4,-134,-130,69,63,-132,-125,155,117,115,-12,-205
-4,-133,-129,69,63,-131,-126,154,116,115,-13,-206
-4,-133,-129,69,63,-131,-125,155,117,116,-13,-205
-4,-132,-128,68,62,-130,-124,156,118,117,-12,-205
-4,-132,-128,68,62,-130,-124,157,119,118,-12,-204
-4,-131,-127,68,62,-129,-123,158,120,118,-12,-204
-4,-131,-127,68,62,-129,-123,159,120,119,-12,-204
-4,-131,-127,68,62,-129,-123,160,122,120,-11,-204
-3,-131,-128,67,63,-129,-124,160,122,120,-11,-205
-3,-130,-127,67,62,-128,-124,160,124,121,-11,-204
-3,-130,-127,67,62,-128,-124,161,125,122,-10,-203
-3,-130,-127,67,62,-128,-124,161,127,123,-9,-203
-2,-130,-128,66,63,-129,-124,162,128,124,-8,-202
-2,-130,-128,66,63,-129,-124,163,129,125,-8,-202
-2,-130,-128,66,63,-129,-125,164,129,125,-7,-202
-2,-130,-128,66,63,-129,-125,164,129,125,-7,-203
-2,-130,-128,66,63,-129,-125,165,130,126,-7,-203
-2,-130,-128,66,63,-129,-124,165,131,127,-7,-202
-2,-130,-128,66,63,-129,-124,166,132,128,-6,-202
-1,-129,-128,65,64,-128,-125,166,133,128,-6,-202
0,-128,-128,64,64,-128,-126,166,134,129,-7,-202
1,-127,-128,63,65,-127,-126,167,136,131,-6,-202
1,-127,-128,63,65,-127,-126,168,137,132,-5,-201
1,-126,-127,63,64,-126,-126,168,137,132,-5,-201
1,-126,-127,63,64,-126,-126,169,138,133,-5,-201
1,-126,-127,63,64,-126,-126,170,139,133,-5,-202
1,-126,-127,63,64,-126,-125,171,140,134,-5,-202
2,-125,-127,62,65,-126,-125,172,141,136,-4,-202
2,-125,-127,62,65,-126,-124,173,143,137,-3,-201
2,-125,-127,62,65,-126,-124,174,145,139,-2,-201
3,-125,-128,61,66,-126,-125,174,146,140,-2,-201
3,-124,-127,61,65,-125,-125,175,148,141,-1,-200
4,-124,-128,60,66,-126,-126,175,149,143,0,-200
3,-124,-127,61,65,-125,-125,177,151,144,1,-199
3,-124,-127,61,65,-125,-125,178,152,146,2,-199
3,-124,-127,61,65,-125,-125,180,154,147,3,-198
3,-123,-126,60,65,-124,-125,181,156,148,4,-197
3,-123,-126,60,65,-124,-125,183,158,150,5,-196
4,-121,-125,59,65,-123,-125,184,160,151,6,-196
4,-121,-125,59,65,-123,-125,186,163,153,8,-195
5,-120,-125,58,65,-122,-126,186,164,155,8,-194
6,-119,-125,57,66,-122,-127,187,166,156,9,-194
7,-119,-126,56,67,-122,-127,188,168,159,10,-192
7,-118,-125,56,66,-121,-126,190,170,162,12,-191
7,-117,-124,55,66,-120,-127,191,170,163,12,-191
7,-117,-124,55,66,-120,-126,193,172,165,13,-190
7,-116,-123,55,65,-119,-125,195,175,167,14,-189
7,-115,-122,54,65,-118,-125,197,177,169,16,-188
7,-115,-122,54,65,-118,-124,199,181,172,17,-187
8,-114,-122,53,65,-118,-124,200,183,174,18,-186
8,-112,-120,52,64,-116,-124,201,186,176,20,-185
9,-111,-120,51,65,-115,-123,204,191,180,22,-183
10,-109,-119,50,65,-114,-122,206,194,182,24,-182
10,-108,-118,49,64,-113,-122,208,196,185,26,-181
11,-106,-117,48,64,-111,-122,210,199,187,28,-180
12,-105,-117,47,65,-111,-121,213,203,191,31,-178
12,-103,-115,46,64,-109,-121,215,206,193,33,-177
13,-102,-115,45,64,-108,-121,217,208,196,35,-177
14,-100,-114,43,64,-107,-121,219,212,200,37,-176
15,-98,-113,42,64,-105,-121,222,216,204,39,-175
17,-96,-113,40,65,-104,-121,224,220,207,42,-173
17,-94,-111,39,64,-102,-122,226,224,211,45,-171
19,-92,-111,37,65,-101,-122,229,228,216,48,-169
20,-90,-110,35,65,-100,-121,231,232,220,52,-166
21,-87,-108,33,65,-97,-121,234,236,224,55,-163
22,-85,-107,32,65,-96,-121,236,240,228,58,-161
23,-83,-106,30,65,-94,-121,239,245,232,61,-158
25,-80,-105,28,65,-92,-121,241,248,236,64,-157
26,-78,-104,26,65,-91,-121,243,252,240,67,-155
28,-76,-104,24,66,-90,-121,245,256,244,69,-153
30,-73,-103,22,67,-88,-122,247,260,248,72,-151
31,-70,-101,20,66,-85,-122,249,264,252,75,-148
32,-68,-100,18,66,-84,-121,251,268,256,78,-146
33,-65,-98,16,66,-81,-122,252,270,259,80,-145
34,-63,-97,15,66,-80,-122,254,274,263,83,-143
34,-60,-94,13,64,-77,-122,255,277,266,85,-141
35,-58,-93,12,64,-75,-121,257,280,269,88,-139
36,-56,-92,10,64,-74,-121,259,284,273,91,-137
37,-54,-91,9,64,-72,-121,260,287,277,93,-135
38,-51,-89,7,64,-70,-122,261,290,280,96,-133
38,-49,-87,6,63,-68,-122,262,293,284,99,-130
39,-47,-86,4,63,-66,-123,263,296,287,102,-128
39,-45,-84,3,62,-64,-122,264,299,291,105,-126
39,-44,-83,3,61,-63,-123,263,300,293,107,-124
39,-43,-82,2,61,-62,-122,264,302,295,109,-123
39,-42,-81,2,60,-61,-122,264,302,297,111,-121
38,-41,-79,2,59,-60,-122,264,303,299,112,-120
38,-40,-78,1,58,-59,-123,263,303,299,112,-121
38,-39,-77,1,58,-58,-123,262,303,299,112,-120
38,-38,-76,0,57,-57,-122,261,303,299,113,-120
38,-38,-76,0,57,-57,-122,260,302,298,113,-120
38,-37,-75,0,57,-56,-122,258,300,296,112,-120
38,-37,-75,0,57,-56,-122,255,297,293,110,-121
37,-38,-75,1,56,-56,-121,253,293,289,108,-122
36,-38,-74,1,55,-56,-121,249,288,284,105,-124
35,-40,-75,3,55,-57,-121,246,282,279,101,-126
33,-41,-74,4,54,-57,-120,242,276,273,97,-129
31,-44,-75,7,53,-59,-119,239,271,267,93,-131
29,-47,-76,9,53,-61,-119,235,265,260,89,-134
28,-50,-78,11,53,-64,-120,230,257,253,84,-138
26,-53,-79,14,53,-66,-119,226,251,246,79,-141
24,-57,-81,17,53,-69,-119,221,243,239,74,-144
22,-60,-82,19,52,-71,-120,216,234,230,69,-148
20,-63,-83,22,52,-73,-120,211,225,223,64,-151
"
		17","
		-67","
		-84","
		25","
		51","
		-75","
		-120","
		206","
		216","
		215","
		58","
		-154"
15,-71,-86,28,51,-78,-121,202,207,207,53,-158
13,-75,-88,31,51,-81,-121,197,199,199,48,-161
11,-79,-90,34,51,-84,-121,192,190,191,43,-165
8,-84,-92,38,50,-88,-121,189,184,185,38,-167
7,-88,-95,41,51,-91,-121,184,178,178,34,-170
5,-91,-96,43,51,-93,-123,179,170,170,29,-174
3,-95,-98,46,51,-96,-123,175,164,164,25,-177
1,-99,-100,49,51,-99,-124,171,157,157,21,-180
-1,-103,-102,52,51,-102,-125,168,151,152,17,-182
-2,-106,-104,54,51,-105,-125,165,146,147,14,-184
-3,-109,-106,56,52,-107,-126,161,139,141,10,-187
-4,-112,-108,58,52,-110,-127,158,133,135,6,-190
-5,-114,-109,60,52,-111,-128,155,128,130,2,-193
-5,-116,-111,61,53,-113,-128,152,123,126,-1,-195
-5,-118,-113,62,54,-115,-129,149,120,123,-3,-196
-6,-120,-114,63,54,-117,-130,146,116,119,-5,-197
-8,-122,-114,65,53,-118,-131,143,112,116,-7,-198
-8,-124,-116,66,54,-120,-132,141,108,113,-9,-199
-9,-126,-117,68,54,-121,-133,139,106,110,-10,-200
-10,-128,-118,69,54,-123,-133,137,102,107,-12,-202
-11,-130,-119,71,54,-124,-134,135,99,105,-15,-203
-11,-132,-121,72,55,-126,-136,133,95,102,-18,-205
-12,-134,-122,73,55,-128,-136,131,93,100,-19,-206
-13,-136,-123,75,55,-129,-136,130,91,98,-20,-207
-13,-137,-124,75,56,-130,-137,129,90,97,-21,-207
-14,-138,-124,76,55,-131,-138,127,88,95,-23,-208
-14,-139,-125,77,56,-132,-138,126,87,95,-23,-209
-15,-140,-125,78,55,-132,-139,124,85,93,-24,-209
-15,-141,-126,78,56,-133,-138,124,84,93,-24,-209
-16,-142,-126,79,55,-134,-139,123,82,91,-25,-210
-16,-143,-127,80,56,-135,-138,123,81,91,-25,-211
-16,-144,-128,80,56,-136,-139,122,79,89,-26,-211
-16,-145,-129,81,57,-137,-140,121,78,88,-27,-212
-16,-145,-129,81,57,-137,-141,120,77,87,-28,-213
-17,-146,-129,82,56,-137,-141,120,77,87,-28,-213
-17,-146,-129,82,56,-137,-142,119,76,85,-28,-213
-18,-146,-128,82,55,-137,-142,118,75,84,-29,-213
-18,-147,-129,83,56,-138,-142,118,75,85,-28,-213
-19,-147,-128,83,55,-137,-142,118,74,84,-29,-214
-20,-148,-128,84,54,-138,-141,118,74,84,-29,-213
-21,-149,-128,85,54,-138,-141,118,73,82,-30,-214
-22,-150,-128,86,53,-139,-141,118,73,83,-29,-214
-22,-150,-128,86,53,-139,-141,118,73,82,-30,-215
-22,-151,-129,87,54,-140,-141,118,73,81,-30,-215
-22,-151,-129,87,54,-140,-141,118,73,81,-30,-215
-22,-151,-129,87,54,-140,-141,118,73,82,-30,-215
-22,-151,-129,87,54,-140,-141,118,73,82,-30,-215
-22,-151,-129,87,54,-140,-141,119,73,82,-30,-215
-22,-151,-129,87,54,-140,-141,119,73,82,-30,-215
-22,-150,-128,86,53,-139,-141,119,73,82,-30,-216
-22,-150,-128,86,53,-139,-141,118,72,82,-31,-217
-22,-151,-129,87,54,-140,-141,118,72,81,-32,-217
-23,-151,-128,87,53,-139,-140,119,73,82,-31,-217
-23,-151,-128,87,53,-139,-140,119,73,82,-32,-217
-24,-152,-128,88,52,-140,-140,119,73,82,-32,-217
-24,-152,-128,88,52,-140,-141,119,73,82,-31,-217
-24,-151,-127,88,52,-139,-141,119,74,82,-31,-216
-24,-151,-127,88,52,-139,-140,120,75,83,-30,-215
-24,-150,-126,87,51,-138,-140,120,75,84,-29,-214
-23,-150,-127,87,52,-138,-141,120,74,83,-30,-215
-23,-149,-126,86,52,-137,-141,120,75,83,-30,-215
-23,-149,-126,86,52,-137,-141,121,75,82,-30,-215
-23,-149,-126,86,52,-137,-141,121,75,82,-30,-215
-23,-149,-126,86,52,-137,-141,121,76,82,-30,-215
-23,-149,-126,86,52,-137,-141,122,76,82,-30,-215
-23,-148,-125,86,51,-136,-141,121,76,82,-30,-215
-23,-148,-125,86,51,-136,-141,121,76,82,-30,-215
-23,-148,-125,86,51,-136,-141,122,76,82,-30,-214
-23,-148,-125,86,51,-136,-141,122,76,82,-30,-214
-23,-148,-125,86,51,-136,-140,123,76,82,-30,-214
-23,-147,-124,85,51,-135,-141,122,75,81,-31,-215
-22,-147,-125,85,52,-136,-141,122,76,81,-31,-215
-22,-148,-126,85,52,-137,-141,123,76,81,-31,-216
-23,-148,-125,86,51,-136,-140,123,77,82,-30,-215
-23,-148,-125,86,51,-136,-140,123,77,81,-30,-215
-24,-148,-124,86,50,-136,-140,122,77,81,-30,-215
-24,-148,-124,86,50,-136,-140,122,76,81,-30,-216
-24,-148,-124,86,50,-136,-140,122,76,81,-30,-216
-25,-148,-123,87,49,-135,-140,121,76,80,-30,-216
-25,-148,-123,87,49,-135,-140,121,75,80,-31,-217
-26,-148,-122,87,48,-135,-139,122,75,81,-31,-217
-26,-149,-123,88,49,-136,-139,122,75,80,-31,-217
-26,-149,-123,88,49,-136,-139,122,75,80,-32,-217
-26,-148,-122,87,48,-135,-139,122,75,81,-32,-217
-26,-149,-123,88,49,-136,-140,121,75,81,-31,-217
-26,-149,-123,88,49,-136,-140,121,75,81,-31,-217
-26,-149,-123,88,49,-136,-141,121,75,82,-31,-217
-26,-148,-122,87,48,-135,-141,121,75,82,-30,-217
-26,-149,-123,88,49,-136,-141,121,74,82,-31,-217
-26,-150,-124,88,49,-137,-142,121,73,82,-31,-217
-26,-150,-124,88,49,-137,-142,122,72,82,-31,-217
-26,-150,-124,88,49,-137,-142,122,71,81,-31,-217
-26,-150,-124,88,49,-137,-142,122,71,81,-32,-218
-27,-150,-123,89,48,-136,-141,122,72,81,-32,-217
-27,-150,-123,89,48,-136,-141,122,72,81,-32,-218
-27,-149,-122,88,48,-135,-143,120,71,80,-33,-219
-27,-149,-122,88,48,-135,-143,119,71,80,-33,-218
-27,-149,-122,88,48,-135,-144,119,71,80,-33,-218
-27,-149,-122,88,48,-135,-144,119,71,80,-33,-218
-27,-150,-123,89,48,-136,-142,120,71,80,-32,-217
-26,-150,-124,88,49,-137,-143,119,70,78,-34,-218
-26,-150,-124,88,49,-137,-143,119,70,78,-34,-217
-26,-150,-124,88,49,-137,-143,119,69,78,-34,-217
-25,-150,-125,88,50,-137,-143,119,69,77,-34,-218
-25,-150,-125,88,50,-137,-143,119,69,77,-34,-218
-25,-150,-125,88,50,-137,-144,119,68,76,-34,-218
-25,-150,-125,88,50,-137,-143,119,68,76,-34,-218
-25,-151,-126,88,51,-138,-143,119,67,75,-35,-218
-25,-151,-126,88,51,-138,-143,118,67,75,-35,-218
-26,-151,-125,89,50,-138,-142,119,67,75,-35,-217
-26,-152,-126,89,50,-139,-142,119,67,74,-35,-218
-26,-152,-126,89,50,-139,-142,119,67,74,-35,-218
-26,-151,-125,89,50,-138,-142,119,67,74,-35,-218
-26,-151,-125,89,50,-138,-142,119,67,74,-35,-218
-26,-151,-125,89,50,-138,-143,118,67,74,-35,-218
-26,-151,-125,89,50,-138,-143,118,67,74,-36,-219
-27,-151,-124,89,49,-137,-143,118,66,73,-36,-219
-27,-151,-124,89,49,-137,-143,117,66,73,-36,-220
-27,-151,-124,89,49,-137,-143,117,65,73,-37,-221
-27,-151,-124,89,49,-137,-142,117,64,72,-37,-221
-28,-151,-123,90,48,-137,-142,117,63,72,-38,-222
-28,-151,-123,90,48,-137,-142,118,63,72,-38,-222
-28,-151,-123,90,48,-137,-142,118,63,72,-38,-222
-28,-152,-124,90,48,-138,-141,118,64,72,-37,-222
-29,-152,-123,91,47,-137,-141,118,63,72,-38,-222
-29,-152,-123,91,47,-137,-141,117,63,72,-38,-222
-29,-153,-124,91,48,-138,-141,117,62,72,-38,-222
-30,-153,-123,92,47,-138,-140,117,63,72,-37,-221
-30,-154,-124,92,47,-139,-140,117,62,72,-38,-221
-30,-154,-124,92,47,-139,-140,117,61,72,-38,-221
-30,-154,-124,92,47,-139,-141,117,61,71,-38,-222
-31,-155,-124,93,47,-139,-140,117,61,71,-37,-221
-31,-156,-125,94,47,-140,-141,117,60,71,-38,-222
-32,-156,-124,94,46,-140,-141,116,59,70,-39,-222
-32,-156,-124,94,46,-140,-141,116,59,70,-39,-222
-32,-157,-125,95,47,-141,-140,116,60,71,-38,-221
-31,-157,-126,94,48,-141,-141,115,59,70,-39,-222
-31,-157,-126,94,48,-141,-141,114,59,70,-39,-223
-31,-157,-126,94,48,-141,-141,114,59,70,-39,-222
-31,-156,-125,94,47,-140,-141,115,58,70,-39,-222
-31,-156,-125,94,47,-140,-140,115,58,70,-39,-222
-30,-156,-126,93,48,-141,-140,115,58,70,-39,-222
-30,-156,-126,93,48,-141,-139,116,58,70,-38,-222
-30,-155,-125,93,48,-140,-140,115,57,69,-39,-222
-29,-154,-125,92,48,-139,-139,116,58,70,-38,-221
-28,-154,-126,91,49,-140,-140,115,57,69,-39,-222
-28,-154,-126,91,49,-140,-140,114,56,70,-39,-222
-27,-154,-127,91,50,-140,-140,114,56,70,-39,-222
-27,-155,-128,91,51,-141,-140,114,56,70,-39,-223
-28,-155,-127,92,50,-141,-139,114,56,70,-39,-223
-28,-156,-128,92,50,-142,-140,114,55,69,-40,-224
-29,-156,-127,93,49,-141,-140,113,54,69,-40,-224
-29,-157,-128,93,50,-142,-140,114,55,70,-40,-224
-30,-157,-127,94,49,-142,-140,114,55,70,-40,-224
-30,-157,-127,94,49,-142,-141,113,55,70,-40,-224
-30,-157,-127,94,49,-142,-141,113,55,70,-40,-224
-30,-157,-127,94,49,-142,-141,113,55,70,-40,-223
-30,-157,-127,94,49,-142,-141,113,55,70,-40,-223
-30,-157,-127,94,49,-142,-141,114,55,70,-40,-223
-30,-157,-127,94,49,-142,-141,114,55,70,-40,-223
-30,-157,-127,94,49,-142,-140,114,54,69,-40,-224
-29,-157,-128,93,50,-142,-140,114,54,69,-40,-224
-29,-157,-128,93,50,-142,-140,114,54,69,-41,-225
-29,-157,-128,93,50,-142,-139,114,54,69,-41,-225
-28,-156,-128,92,50,-142,-140,113,54,68,-41,-226
-28,-156,-128,92,50,-142,-139,113,54,68,-41,-225
-28,-156,-128,92,50,-142,-139,113,55,68,-41,-225
-28,-156,-128,92,50,-142,-139,113,55,68,-41,-225
-28,-156,-128,92,50,-142,-140,113,55,68,-41,-225
-28,-156,-128,92,50,-142,-140,113,54,68,-41,-226
-28,-156,-128,92,50,-142,-141,113,54,68,-42,-227
-28,-156,-128,92,50,-142,-141,113,53,67,-42,-227
-28,-157,-129,93,51,-143,-141,113,53,67,-42,-227
-28,-157,-129,93,51,-143,-141,112,52,67,-43,-228
-28,-157,-129,93,51,-143,-142,112,52,66,-43,-228
-28,-158,-130,93,51,-144,-141,113,53,67,-42,-227
-28,-158,-130,93,51,-144,-140,112,53,67,-42,-228
-29,-158,-129,94,50,-143,-140,112,53,67,-43,-228
-28,-158,-130,93,51,-144,-140,112,53,66,-42,-228
-28,-158,-130,93,51,-144,-140,113,53,67,-42,-228
-29,-157,-128,93,50,-142,-140,113,53,66,-42,-227
-29,-157,-128,93,50,-142,-140,113,53,66,-43,-227
-29,-157,-128,93,50,-142,-140,113,54,66,-43,-227
-30,-157,-127,94,49,-142,-140,113,54,66,-43,-227
-30,-158,-128,94,49,-143,-141,113,54,65,-44,-227
-31,-158,-127,95,48,-142,-141,113,54,66,-43,-226
-31,-159,-128,95,49,-143,-142,112,54,66,-43,-227
-31,-159,-128,95,49,-143,-142,111,53,65,-43,-227
-32,-159,-127,96,48,-143,-142,111,52,65,-43,-227
-31,-160,-129,96,49,-144,-142,111,52,65,-43,-227
-31,-160,-129,96,49,-144,-142,111,52,65,-43,-227
-31,-160,-129,96,49,-144,-142,111,51,64,-44,-227
-31,-160,-129,96,49,-144,-141,111,51,64,-44,-228
-31,-160,-129,96,49,-144,-141,111,51,64,-45,-228
-32,-161,-129,97,49,-145,-140,112,52,65,-44,-227
-32,-161,-129,97,49,-145,-141,111,51,64,-44,-227
-32,-161,-129,97,49,-145,-141,111,51,64,-45,-227
-32,-161,-129,97,49,-145,-141,110,50,64,-45,-227
-32,-161,-129,97,49,-145,-141,110,50,64,-45,-227
-32,-161,-129,97,49,-145,-141,110,49,64,-45,-227
-32,-161,-129,97,49,-145,-141,111,49,64,-45,-228
-32,-161,-129,97,49,-145,-142,111,49,64,-45,-228
-32,-161,-129,97,49,-145,-142,111,48,63,-45,-228
-32,-161,-129,97,49,-145,-142,111,49,63,-45,-229
-32,-161,-129,97,49,-145,-143,110,49,63,-44,-229
-32,-161,-129,97,49,-145,-143,110,48,63,-44,-229
-32,-161,-129,97,49,-145,-143,110,48,63,-44,-228
-32,-161,-129,97,49,-145,-143,110,49,63,-44,-228
-32,-161,-129,97,49,-145,-143,110,49,63,-44,-228
-32,-160,-128,96,48,-144,-143,110,48,63,-44,-228
-32,-160,-128,96,48,-144,-143,111,49,63,-44,-227
-32,-160,-128,96,48,-144,-142,111,49,63,-44,-227
-32,-160,-128,96,48,-144,-142,111,49,63,-44,-227
-31,-161,-130,96,50,-145,-142,111,49,63,-44,-227
-31,-161,-130,96,50,-145,-142,111,49,62,-44,-227
-31,-161,-130,96,50,-145,-143,110,49,62,-44,-227
-32,-161,-129,97,49,-145,-144,110,48,62,-44,-227
-32,-162,-130,97,49,-146,-144,109,48,62,-45,-227
-32,-162,-130,97,49,-146,-145,109,47,61,-45,-228
-33,-162,-129,98,48,-145,-144,110,47,62,-45,-227
-33,-163,-130,98,49,-146,-145,110,47,62,-45,-228
-33,-163,-130,98,49,-146,-145,110,47,62,-45,-228
-33,-163,-130,98,49,-146,-145,109,47,62,-46,-228
-33,-163,-130,98,49,-146,-144,110,47,62,-46,-228
-33,-163,-130,98,49,-146,-144,110,48,63,-45,-228
-32,-163,-131,98,50,-147,-143,110,49,63,-45,-227
-32,-163,-131,98,50,-147,-143,110,49,63,-45,-227
-32,-163,-131,98,50,-147,-143,110,49,62,-45,-227
-32,-163,-131,98,50,-147,-143,110,49,62,-45,-227
-31,-163,-132,97,51,-147,-144,109,48,61,-47,-228
-31,-163,-132,97,51,-147,-144,109,47,61,-47,-228
-31,-162,-131,97,50,-146,-144,109,47,61,-47,-228
-31,-162,-131,97,50,-146,-144,109,47,61,-47,-228
-31,-162,-131,97,50,-146,-144,110,47,61,-46,-228
-30,-161,-131,96,51,-146,-145,109,47,60,-47,-228
-29,-161,-132,95,52,-146,-144,109,47,61,-46,-227
-29,-160,-131,95,51,-145,-144,109,47,61,-45,-227
-29,-160,-131,95,51,-145,-144,110,48,62,-45,-226
-28,-160,-132,94,52,-146,-145,109,47,61,-45,-227
-28,-160,-132,94,52,-146,-145,109,47,61,-45,-226
-28,-160,-132,94,52,-146,-145,109,47,61,-46,-226
-28,-160,-132,94,52,-146,-145,109,47,61,-46,-227
-28,-161,-133,95,53,-147,-144,110,48,62,-45,-226
-28,-161,-133,95,53,-147,-144,110,48,62,-46,-226
-29,-161,-132,95,52,-146,-144,110,48,62,-46,-227
-29,-161,-132,95,52,-146,-145,110,48,62,-47,-227
-29,-162,-133,96,52,-147,-145,109,47,62,-47,-227
-29,-162,-133,96,52,-147,-145,109,47,62,-47,-228
-29,-162,-133,96,52,-147,-145,109,47,62,-47,-228
-29,-162,-133,96,52,-147,-145,109,46,61,-48,-229
-29,-162,-133,96,52,-147,-145,109,46,61,-49,-230
-29,-162,-133,96,52,-147,-145,109,46,60,-49,-230
-28,-162,-134,95,53,-148,-145,109,46,60,-48,-230
-28,-162,-134,95,53,-148,-145,109,46,60,-48,-230
-28,-162,-134,95,53,-148,-145,109,46,60,-48,-230
-28,-163,-135,96,54,-149,-145,108,47,60,-47,-230
-28,-163,-135,96,54,-149,-145,108,47,60,-47,-229
-28,-163,-135,96,54,-149,-145,108,47,60,-47,-229
-28,-163,-135,96,54,-149,-145,108,46,60,-47,-229
-28,-163,-135,96,54,-149,-144,108,45,60,-47,-228
-28,-163,-135,96,54,-149,-144,108,45,59,-48,-228
-28,-163,-135,96,54,-149,-144,108,45,59,-48,-229
-28,-163,-135,96,54,-149,-144,108,45,59,-49,-229
-28,-163,-135,96,54,-149,-144,108,45,59,-49,-230
-28,-164,-136,96,54,-150,-143,109,46,59,-48,-229
-28,-164,-136,96,54,-150,-144,109,47,59,-48,-229
-29,-164,-135,97,53,-149,-144,108,47,59,-48,-229
-28,-164,-136,96,54,-150,-144,108,47,59,-47,-229
-28,-164,-136,96,54,-150,-144,108,47,59,-47,-228
-28,-164,-136,96,54,-150,-143,109,47,60,-47,-228
-27,-164,-137,96,55,-150,-144,108,46,59,-47,-228
-26,-164,-138,95,56,-151,-144,108,46,59,-47,-228
-26,-163,-137,95,56,-150,-143,108,46,59,-47,-228
-26,-163,-137,95,56,-150,-143,109,46,60,-47,-228
-25,-163,-138,94,57,-150,-144,108,46,59,-47,-228
-25,-163,-138,94,57,-150,-143,108,46,60,-47,-228
-25,-163,-138,94,57,-150,-142,108,47,60,-47,-228
-25,-163,-138,94,57,-150,-142,108,47,60,-46,-227
-25,-162,-137,94,56,-149,-141,109,48,61,-46,-227
-24,-162,-138,93,57,-150,-141,109,48,60,-46,-227
-25,-162,-137,94,56,-149,-140,109,48,60,-47,-227
-25,-162,-137,94,56,-149,-140,109,47,59,-47,-227
-25,-162,-137,94,56,-149,-141,109,47,59,-47,-227
-25,-162,-137,94,56,-149,-141,108,47,58,-48,-227
-25,-162,-137,94,56,-149,-141,108,48,58,-48,-227
-26,-162,-136,94,55,-149,-141,108,48,58,-48,-227
-26,-162,-136,94,55,-149,-142,108,47,58,-48,-228
-26,-163,-137,95,56,-150,-142,108,48,59,-47,-227
-26,-163,-137,95,56,-150,-142,108,48,58,-48,-228
-26,-164,-138,95,56,-151,-143,108,47,58,-48,-228
-27,-165,-138,96,56,-151,-142,108,48,58,-48,-228
-27,-165,-138,96,56,-151,-143,108,47,57,-49,-229
-28,-166,-138,97,55,-152,-143,108,47,57,-50,-229
-28,-166,-138,97,55,-152,-143,108,47,57,-50,-229
-28,-166,-138,97,55,-152,-144,107,48,57,-50,-229
-28,-166,-138,97,55,-152,-144,107,48,57,-50,-229
-27,-165,-138,96,56,-151,-143,106,48,57,-49,-229
-27,-165,-138,96,56,-151,-143,106,48,57,-49,-229
-27,-165,-138,96,56,-151,-143,107,49,57,-49,-230
"
		-26","
		-164","
		-138","
		95","
		56","
		-151","
		-144","
		107","
		48","
		57","
		-50","
		-231"
-26,-164,-138,95,56,-151,-143,107,48,57,-50,-230
-26,-164,-138,95,56,-151,-143,107,47,57,-50,-231
-26,-164,-138,95,56,-151,-143,107,48,57,-50,-231
-26,-164,-138,95,56,-151,-143,107,48,57,-50,-231
-26,-164,-138,95,56,-151,-143,107,48,57,-50,-231
-26,-165,-139,96,57,-152,-144,107,47,56,-51,-231
-26,-165,-139,96,57,-152,-145,107,47,56,-51,-231
-26,-165,-139,96,57,-152,-145,106,47,56,-51,-231
-27,-166,-139,97,56,-152,-145,107,48,56,-50,-230
-27,-166,-139,97,56,-152,-145,107,47,56,-50,-231
-27,-166,-139,97,56,-152,-145,107,47,55,-51,-231
-27,-166,-139,97,56,-152,-145,107,47,55,-51,-231
-28,-166,-138,97,55,-152,-145,108,48,55,-51,-231
-28,-166,-138,97,55,-152,-145,108,48,55,-50,-231
-27,-165,-138,96,56,-151,-144,108,49,55,-50,-230
-27,-165,-138,96,56,-151,-144,109,49,56,-50,-230
-27,-165,-138,96,56,-151,-143,109,50,56,-49,-229
-27,-165,-138,96,56,-151,-143,109,50,56,-49,-229
-27,-165,-138,96,56,-151,-142,109,50,56,-49,-228
-27,-164,-137,96,55,-150,-143,108,49,55,-50,-229
-27,-164,-137,96,55,-150,-144,108,48,55,-51,-229
-27,-164,-137,96,55,-150,-145,107,48,55,-51,-229
-27,-164,-137,96,55,-150,-145,107,47,56,-52,-229
-27,-165,-138,96,56,-151,-145,108,48,57,-51,-229
-27,-165,-138,96,56,-151,-145,108,48,57,-51,-229
-28,-165,-137,97,55,-151,-146,107,48,57,-51,-230
-28,-166,-138,97,55,-152,-146,106,47,57,-51,-230
-29,-166,-137,98,54,-151,-145,107,48,57,-50,-229
-29,-167,-138,98,55,-152,-145,108,48,57,-50,-229
-29,-167,-138,98,55,-152,-145,108,49,57,-50,-229
-28,-167,-139,98,56,-153,-145,108,49,57,-50,-229
-28,-167,-139,98,56,-153,-145,109,49,57,-49,-230
-28,-166,-138,97,55,-152,-146,108,48,56,-50,-230
-28,-166,-138,97,55,-152,-145,108,49,56,-49,-230
-28,-166,-138,97,55,-152,-145,108,49,56,-49,-230
-28,-166,-138,97,55,-152,-146,107,48,56,-49,-230
-28,-166,-138,97,55,-152,-147,107,48,56,-49,-230
-29,-167,-138,98,55,-152,-146,108,49,57,-48,-229
-29,-167,-138,98,55,-152,-146,107,48,57,-49,-229
-30,-167,-137,99,54,-152,-147,107,48,57,-49,-229
-30,-168,-138,99,54,-153,-146,108,48,57,-49,-229
-30,-167,-137,99,54,-152,-146,107,47,56,-50,-230
-30,-167,-137,99,54,-152,-146,107,47,56,-50,-229
-30,-167,-137,99,54,-152,-146,107,47,56,-50,-229
-30,-167,-137,99,54,-152,-146,107,47,56,-49,-229
-30,-167,-137,99,54,-152,-146,106,47,56,-49,-229
-31,-167,-136,99,53,-151,-145,107,47,57,-48,-228
-30,-167,-137,99,54,-152,-146,105,46,56,-49,-230
-30,-167,-137,99,54,-152,-146,105,46,56,-49,-230
-30,-167,-137,99,54,-152,-146,105,46,56,-49,-230
-29,-167,-138,98,55,-152,-147,105,46,56,-49,-230
-29,-167,-138,98,55,-152,-148,105,46,56,-50,-231
-28,-167,-139,98,56,-153,-148,105,45,55,-50,-231
-28,-168,-140,98,56,-154,-149,105,45,55,-50,-231
-27,-169,-142,98,58,-155,-149,106,45,55,-51,-231
-26,-169,-143,98,59,-156,-148,106,46,56,-50,-231
-25,-169,-144,97,60,-156,-148,106,46,55,-50,-231
-25,-169,-144,97,60,-156,-147,108,47,56,-50,-230
-24,-169,-145,97,61,-157,-146,109,48,57,-49,-230
-24,-169,-145,97,61,-157,-145,110,49,58,-48,-229
-23,-169,-146,96,62,-157,-144,112,50,58,-47,-228
-22,-168,-146,95,62,-157,-144,112,50,58,-48,-228
-22,-168,-146,95,62,-157,-144,113,51,59,-47,-228
-21,-168,-147,95,63,-157,-144,113,52,59,-47,-227
-21,-168,-147,95,63,-157,-143,114,53,60,-47,-227
-20,-167,-147,94,64,-157,-145,113,52,59,-47,-227
-21,-168,-147,95,63,-157,-144,114,54,60,-46,-226
-21,-168,-147,95,63,-157,-144,114,54,60,-46,-226
-21,-168,-147,95,63,-157,-144,114,54,61,-46,-226
-21,-168,-147,95,63,-157,-144,115,55,61,-46,-226
-22,-169,-147,96,63,-158,-143,115,55,61,-46,-227
-22,-169,-147,96,63,-158,-143,115,55,61,-46,-228
-23,-170,-147,97,62,-158,-141,117,56,62,-45,-227
-24,-170,-146,97,61,-158,-140,117,56,62,-45,-227
-24,-170,-146,97,61,-158,-140,117,56,63,-45,-227
-24,-170,-146,97,61,-158,-140,117,56,63,-44,-227
-24,-170,-146,97,61,-158,-140,117,56,63,-44,-226
-24,-170,-146,97,61,-158,-140,117,56,64,-43,-226
-24,-170,-146,97,61,-158,-140,118,56,64,-43,-226
-23,-170,-147,97,62,-158,-140,118,56,64,-42,-225
-23,-170,-147,97,62,-158,-141,118,56,64,-42,-225
-23,-170,-147,97,62,-158,-142,117,56,63,-42,-225
-23,-171,-148,97,63,-159,-144,116,55,63,-42,-225
-23,-171,-148,97,63,-159,-147,114,54,63,-42,-225
-23,-171,-148,97,63,-159,-149,112,53,62,-42,-226
-23,-171,-148,97,63,-159,-151,110,52,62,-42,-226
-23,-172,-149,98,63,-160,-152,110,52,62,-42,-225
-24,-172,-148,98,62,-160,-153,109,52,62,-42,-226
-24,-172,-148,98,62,-160,-152,109,52,62,-42,-226
-23,-171,-148,97,63,-159,-153,109,52,61,-42,-226
-23,-171,-148,97,63,-159,-152,110,52,62,-42,-226
-22,-170,-148,96,63,-159,-151,111,53,62,-41,-225
-22,-170,-148,96,63,-159,-150,112,54,63,-40,-225
-21,-169,-148,95,64,-158,-150,112,53,63,-40,-225
-21,-169,-148,95,64,-158,-150,112,52,63,-40,-225
-21,-169,-148,95,64,-158,-149,111,52,63,-40,-225
-22,-169,-147,96,63,-158,-149,110,51,63,-40,-225
-22,-169,-147,96,63,-158,-149,110,51,62,-41,-226
-23,-169,-146,96,62,-157,-149,110,51,62,-41,-225
-24,-170,-146,97,61,-158,-149,109,50,61,-42,-226
-26,-170,-144,98,59,-157,-149,109,50,61,-42,-226
-27,-170,-143,99,58,-156,-149,109,49,60,-43,-227
-28,-171,-143,100,58,-157,-148,109,50,60,-43,-227
-29,-171,-142,100,57,-156,-147,108,49,60,-44,-227
-30,-171,-141,101,56,-156,-146,109,50,61,-43,-226
-30,-171,-141,101,56,-156,-145,108,50,61,-43,-226
-30,-171,-141,101,56,-156,-145,108,50,61,-43,-226
-30,-171,-141,101,56,-156,-145,108,49,61,-43,-226
-30,-171,-141,101,56,-156,-145,107,49,61,-43,-226
-30,-171,-141,101,56,-156,-146,107,49,61,-44,-226
-30,-171,-141,101,56,-156,-146,107,48,61,-44,-226
-30,-171,-141,101,56,-156,-146,107,48,60,-44,-226
-30,-171,-141,101,56,-156,-147,106,47,60,-45,-227
-30,-172,-142,101,56,-157,-147,106,47,60,-46,-227
-31,-172,-141,102,55,-156,-147,107,47,60,-46,-227
-31,-172,-141,102,55,-156,-147,106,47,60,-46,-228
-31,-172,-141,102,55,-156,-147,106,47,60,-46,-228
-31,-172,-141,102,55,-156,-147,107,47,61,-46,-228
-31,-172,-141,102,55,-156,-146,107,47,61,-46,-227
-31,-171,-140,101,55,-155,-146,107,48,61,-46,-227
-31,-171,-140,101,55,-155,-146,107,48,61,-45,-226
-31,-171,-140,101,55,-155,-146,107,48,61,-45,-226
-31,-171,-140,101,55,-155,-145,107,48,61,-45,-226
-31,-171,-140,101,55,-155,-145,107,48,61,-45,-226
-31,-171,-140,101,55,-155,-145,107,48,61,-45,-226
-32,-171,-139,102,54,-155,-145,106,48,61,-45,-227
-32,-171,-139,102,54,-155,-145,106,47,60,-46,-227
-32,-172,-140,102,54,-156,-144,107,48,61,-45,-227
-33,-172,-139,103,53,-155,-145,106,48,61,-46,-227
-33,-172,-139,103,53,-155,-145,107,48,61,-46,-227
-33,-171,-138,102,53,-154,-145,107,48,61,-46,-227
-32,-171,-139,102,54,-155,-146,107,48,59,-48,-228
-33,-171,-138,102,53,-154,-144,109,49,61,-47,-227
-33,-171,-138,102,53,-154,-143,110,50,60,-47,-227
-33,-172,-139,103,53,-155,-141,112,52,60,-48,-228
-33,-172,-139,103,53,-155,-139,115,54,60,-49,-229
-33,-173,-140,103,54,-156,-137,118,56,60,-50,-230
-33,-175,-142,104,55,-158,-134,122,60,61,-50,-231
-32,-175,-143,104,56,-159,-132,126,65,62,-50,-231
-31,-175,-144,103,57,-159,-131,128,69,64,-51,-232
-31,-174,-143,103,56,-158,-129,132,75,68,-49,-232
-30,-173,-143,102,57,-158,-128,135,83,74,-47,-230
-28,-170,-142,99,57,-156,-127,139,92,82,-42,-227
-25,-167,-142,96,59,-154,-126,145,104,93,-35,-224
-21,-164,-143,93,61,-153,-124,154,118,105,-28,-219
-17,-159,-142,88,63,-150,-119,167,137,122,-17,-213
-12,-153,-141,83,65,-147,-113,184,162,145,-3,-203
-6,-143,-137,75,66,-140,-112,199,188,170,14,-192
0,-130,-130,65,65,-130,-111,211,216,201,36,-177
6,-111,-117,53,62,-114,-118,215,245,237,63,-157
13,-87,-100,37,57,-93,-135,208,272,277,94,-135
20,-59,-79,20,50,-69,-160,188,297,322,131,-107
28,-30,-58,1,43,-44,-193,155,315,365,167,-81
34,-3,-37,-15,36,-20,-227,117,333,410,203,-53
38,20,-18,-29,28,1,-261,73,347,451,234,-31
38,36,-2,-37,20,17,-288,30,358,485,259,-14
33,44,11,-38,11,28,-307,-10,362,505,272,-5
24,41,17,-32,4,29,-317,-45,354,508,271,-5
13,29,16,-21,-1,23,-321,-75,329,486,256,-16
-1,9,10,-4,-5,10,-318,-97,285,440,227,-34
-17,-17,0,17,-8,-8,-310,-113,220,369,184,-60
-32,-46,-14,39,-9,-30,-298,-121,141,282,133,-92
-46,-76,-30,61,-8,-53,-286,-124,60,191,78,-127
-57,-102,-45,80,-6,-73,-273,-120,-11,108,28,-160
-66,-123,-57,95,-4,-90,-263,-114,-67,41,-15,-188
-71,-140,-69,106,-1,-104,-255,-106,-103,-5,-48,-212
-73,-153,-80,113,4,-116,-251,-95,-117,-29,-69,-229
-71,-162,-91,117,10,-126,-252,-85,-115,-36,-81,-239
-67,-169,-102,118,18,-135,-253,-73,-104,-32,-84,-244
-62,-175,-113,119,26,-144,-252,-58,-89,-24,-84,-247
-56,-181,-125,119,35,-153,-249,-41,-73,-14,-83,-249
-51,-186,-135,119,42,-160,-243,-22,-56,-4,-80,-249
-46,-190,-144,118,49,-167,-236,-5,-41,4,-77,-249
-42,-193,-151,118,55,-172,-225,15,-26,13,-74,-247
-39,-196,-157,118,59,-176,-212,34,-10,22,-69,-245
-36,-198,-162,117,63,-180,-198,52,5,31,-64,-242
-33,-197,-164,115,66,-180,-187,67,18,38,-60,-240
-31,-193,-162,112,66,-177,-175,82,31,47,-55,-237
-28,-188,-160,108,66,-174,-163,97,45,56,-49,-232
-27,-182,-155,105,64,-168,-155,109,56,64,-44,-229
-26,-176,-150,101,62,-163,-147,119,65,71,-39,-225
-26,-169,-143,98,59,-156,-141,127,73,78,-35,-221
-26,-164,-138,95,56,-151,-137,133,79,82,-32,-219
-26,-161,-135,94,55,-148,-134,138,83,84,-30,-218
-27,-159,-132,93,53,-145,-132,142,87,87,-28,-216
-27,-157,-130,92,52,-143,-131,144,89,88,-28,-216
-26,-156,-130,91,52,-143,-132,144,90,88,-28,-217
-26,-156,-130,91,52,-143,-131,145,91,88,-28,-217
-26,-157,-131,92,53,-144,-129,147,93,90,-26,-216
-26,-157,-131,92,53,-144,-129,148,94,91,-26,-216
-26,-156,-130,91,52,-143,-129,149,94,90,-26,-216
-26,-156,-130,91,52,-143,-128,150,95,91,-25,-216
-26,-156,-130,91,52,-143,-126,152,96,92,-25,-215
-26,-156,-130,91,52,-143,-125,154,97,92,-24,-215
-26,-156,-130,91,52,-143,-124,155,98,93,-24,-215
-26,-156,-130,91,52,-143,-124,156,99,94,-24,-215
-25,-156,-131,91,53,-143,-123,157,101,95,-24,-215
-25,-156,-131,91,53,-143,-123,158,102,96,-23,-215
-25,-156,-131,91,53,-143,-122,158,103,97,-23,-214
-25,-155,-130,90,53,-142,-122,158,104,98,-22,-214
-25,-155,-130,90,53,-142,-122,159,105,99,-21,-213
-25,-155,-130,90,53,-142,-121,160,106,100,-20,-212
-25,-154,-129,90,52,-141,-122,161,105,99,-21,-212
-25,-154,-129,90,52,-141,-121,162,106,100,-20,-212
-25,-154,-129,90,52,-141,-121,164,108,100,-20,-211
-24,-153,-129,89,53,-141,-120,165,109,101,-19,-210
-23,-153,-130,88,54,-141,-120,165,110,102,-20,-211
-22,-152,-130,87,54,-141,-120,166,111,103,-19,-210
-22,-152,-130,87,54,-141,-119,167,113,104,-18,-210
-22,-151,-129,87,54,-140,-120,167,113,104,-18,-210
-21,-151,-130,86,55,-140,-119,168,114,105,-17,-209
-21,-150,-129,86,54,-139,-119,169,115,106,-16,-209
-21,-149,-128,85,54,-138,-119,169,114,106,-17,-210
-21,-149,-128,85,54,-138,-119,170,115,106,-17,-209
-21,-150,-129,86,54,-139,-118,173,117,108,-16,-208
-21,-150,-129,86,54,-139,-118,173,118,108,-15,-208
-21,-150,-129,86,54,-139,-118,174,119,109,-15,-208
-21,-150,-129,86,54,-139,-117,174,120,110,-14,-208
-20,-149,-129,85,55,-139,-118,174,120,110,-14,-208
-20,-149,-129,85,55,-139,-118,174,121,112,-13,-208
-20,-149,-129,85,55,-139,-117,175,122,113,-13,-207
-20,-148,-128,84,54,-138,-116,176,123,114,-12,-207
-20,-148,-128,84,54,-138,-116,177,124,115,-11,-207
-20,-148,-128,84,54,-138,-116,178,125,116,-11,-207
-20,-149,-129,85,55,-139,-116,178,126,116,-11,-207
-20,-149,-129,85,55,-139,-116,179,127,117,-11,-207
-20,-149,-129,85,55,-139,-116,180,129,118,-11,-206
-20,-149,-129,85,55,-139,-117,180,130,118,-10,-206
-20,-149,-129,85,55,-139,-117,181,132,119,-10,-205
-19,-148,-129,84,55,-138,-117,180,132,119,-10,-205
-19,-148,-129,84,55,-138,-117,182,134,121,-9,-205
-19,-148,-129,84,55,-138,-116,183,135,122,-7,-203
-19,-147,-128,83,55,-137,-115,184,136,124,-6,-203
-18,-147,-129,83,56,-138,-114,187,138,125,-5,-202
-17,-146,-129,82,56,-137,-115,188,138,125,-5,-202
-17,-146,-129,82,56,-137,-114,189,140,126,-4,-201
-16,-145,-129,81,57,-137,-114,189,141,127,-5,-201
-15,-144,-129,80,57,-136,-114,191,144,128,-3,-200
-15,-143,-128,79,57,-135,-114,191,145,130,-3,-200
-14,-142,-128,78,57,-135,-113,193,148,132,-1,-199
-13,-141,-128,77,58,-134,-113,194,149,133,0,-199
-13,-140,-127,77,57,-133,-112,195,151,135,1,-198
-12,-140,-128,76,58,-134,-112,196,151,136,1,-197
-12,-139,-127,76,58,-133,-111,199,153,138,2,-197
-12,-139,-127,76,58,-133,-110,201,155,140,3,-196
-11,-139,-128,75,59,-133,-110,202,157,142,4,-196
-11,-139,-128,75,59,-133,-110,204,159,144,6,-195
-10,-138,-128,74,59,-133,-110,205,161,145,6,-195
-9,-137,-128,73,60,-132,-111,206,163,146,7,-195
-8,-136,-128,72,60,-132,-110,209,166,149,9,-194
-7,-135,-128,71,61,-131,-110,210,169,150,10,-193
-6,-134,-128,70,61,-131,-110,212,171,152,11,-193
-5,-132,-127,69,61,-129,-109,214,173,154,12,-192
-5,-131,-126,68,61,-128,-108,217,176,157,14,-190
-4,-130,-126,67,61,-128,-108,219,179,158,15,-190
-3,-129,-126,66,62,-127,-106,222,183,162,17,-188
-2,-127,-125,65,62,-126,-106,223,186,165,18,-188
-1,-126,-125,64,62,-125,-106,225,189,167,20,-187
0,-124,-124,62,62,-124,-106,227,192,170,21,-186
1,-122,-123,61,62,-122,-106,229,195,172,22,-185
2,-121,-123,60,63,-122,-105,231,198,175,24,-184
3,-119,-122,58,63,-120,-104,234,201,178,26,-182
4,-118,-122,57,63,-120,-102,238,205,181,29,-180
4,-116,-120,56,62,-118,-101,241,208,184,31,-179
5,-114,-119,55,62,-116,-101,244,212,187,33,-178
6,-113,-119,54,63,-116,-101,247,216,190,35,-177
7,-112,-119,53,63,-115,-100,251,221,195,38,-175
8,-109,-117,51,63,-113,-101,253,225,198,40,-174
9,-107,-116,49,63,-111,-100,256,230,203,43,-172
10,-105,-115,48,63,-110,-99,258,235,208,46,-170
12,-102,-114,45,63,-108,-97,262,239,213,49,-168
13,-100,-113,44,63,-106,-95,265,244,218,53,-166
14,-97,-111,42,63,-104,-95,267,247,221,55,-164
15,-95,-110,40,63,-102,-94,270,251,225,57,-163
15,-93,-108,39,62,-100,-93,274,256,230,61,-160
17,-91,-108,37,63,-99,-94,276,260,234,63,-159
17,-89,-106,36,62,-97,-93,279,266,239,66,-156
18,-87,-105,35,62,-96,-93,282,270,244,69,-154
19,-85,-104,33,62,-94,-93,284,275,248,72,-152
20,-82,-102,31,61,-92,-93,285,279,252,75,-151
21,-80,-101,30,61,-90,-92,287,283,257,78,-149
22,-77,-99,28,61,-88,-92,289,287,261,81,-146
23,-74,-97,26,60,-85,-91,292,291,265,84,-144
24,-71,-95,24,60,-83,-91,293,294,269,87,-142
25,-69,-94,22,60,-81,-91,296,298,273,90,-139
25,-67,-92,21,59,-79,-91,299,303,278,93,-136
26,-64,-90,19,58,-77,-92,299,305,280,95,-135
27,-62,-89,18,58,-75,-92,300,309,284,98,-133
27,-60,-87,17,57,-73,-92,302,314,289,102,-130
27,-58,-85,16,56,-71,-92,302,316,292,104,-128
27,-57,-84,15,56,-70,-91,303,319,296,107,-126
27,-55,-82,14,55,-68,-92,303,321,298,110,-125
27,-53,-80,13,54,-66,-93,302,322,299,111,-124
26,-52,-78,13,52,-65,-93,302,324,301,112,-123
26,-51,-77,13,52,-64,-93,301,325,302,113,-122
26,-51,-77,13,52,-64,-93,300,325,303,115,-121
26,-50,-76,12,51,-63,-93,298,325,304,115,-120
26,-49,-75,12,51,-62,-95,295,323,302,114,-121
26,-49,-75,12,51,-62,-95,292,321,301,114,-121
"
		26","
		-49","
		-75","
		12","
		51","
		-62","
		-96","
		288","
		318","
		299","
		113","
		-122"
25,-50,-75,13,50,-62,-96,285,315,296,112,-122
24,-52,-76,14,50,-64,-96,281,311,293,110,-124
23,-53,-76,15,50,-64,-96,277,305,288,108,-126
22,-55,-77,17,50,-66,-97,273,299,282,104,-129
20,-58,-78,19,49,-68,-98,268,292,276,100,-132
18,-62,-80,22,49,-71,-99,263,285,270,96,-135
16,-65,-81,25,49,-73,-100,258,277,263,91,-138
14,-69,-83,28,49,-76,-102,252,269,256,86,-142
12,-73,-85,31,49,-79,-103,246,261,248,81,-145
9,-77,-86,34,48,-81,-104,240,251,240,76,-149
7,-82,-89,38,48,-85,-104,236,243,232,72,-152
5,-85,-90,40,48,-87,-105,229,233,223,67,-157
3,-89,-92,43,48,-90,-106,224,224,215,62,-161
2,-93,-95,46,49,-94,-107,219,214,207,56,-165
0,-97,-97,49,49,-97,-108,214,205,199,51,-169
-1,-102,-101,52,50,-101,-109,209,196,192,46,-173
-3,-106,-103,55,50,-104,-111,204,188,185,40,-176
-4,-110,-106,57,51,-108,-112,198,179,178,36,-180
-6,-114,-108,60,51,-111,-113,194,172,171,32,-182
-7,-118,-111,63,52,-114,-115,188,164,164,27,-186
-9,-122,-113,66,52,-117,-116,184,157,158,23,-188
-10,-125,-115,68,53,-120,-116,180,151,152,20,-190
-11,-129,-118,70,54,-123,-117,176,145,145,15,-194
-12,-132,-120,72,54,-126,-118,173,139,140,12,-196
-14,-135,-121,75,54,-128,-120,169,133,134,8,-199
-15,-139,-124,77,55,-131,-120,166,128,130,5,-200
-16,-141,-125,79,55,-133,-122,162,122,126,2,-203
-16,-144,-128,80,56,-136,-123,158,118,121,-1,-204
-17,-146,-129,82,56,-137,-124,155,113,118,-3,-206
-17,-148,-131,83,57,-139,-125,152,109,115,-5,-207
-18,-151,-133,85,58,-142,-125,150,105,112,-7,-208
-18,-153,-135,86,59,-144,-125,148,102,109,-9,-209
-19,-154,-135,87,58,-144,-127,145,98,105,-12,-211
-19,-156,-137,88,59,-146,-127,144,95,103,-13,-212
-20,-158,-138,89,59,-148,-128,143,93,100,-15,-213
-21,-160,-139,91,59,-149,-128,141,91,99,-16,-214
-21,-161,-140,91,60,-150,-130,140,88,96,-18,-215
-21,-162,-141,92,60,-151,-130,139,87,96,-18,-215
-21,-163,-142,92,61,-152,-131,137,86,94,-19,-216
-21,-164,-143,93,61,-153,-132,135,84,93,-20,-217
-21,-164,-143,93,61,-153,-132,134,82,92,-20,-217
-21,-165,-144,93,62,-154,-131,134,82,92,-20,-217
-21,-165,-144,93,62,-154,-132,133,80,91,-21,-217
-22,-166,-144,94,61,-155,-132,132,78,89,-22,-219
-22,-167,-145,95,62,-156,-132,132,78,89,-22,-219
-22,-168,-146,95,62,-157,-132,131,77,88,-23,-219
-23,-168,-145,96,61,-156,-132,130,76,87,-24,-220
-23,-169,-146,96,62,-157,-132,131,77,87,-24,-220
-23,-169,-146,96,62,-157,-132,130,76,87,-24,-220
-23,-169,-146,96,62,-157,-133,129,76,87,-25,-221
-24,-170,-146,97,61,-158,-133,128,75,86,-26,-221
-25,-170,-145,98,60,-157,-133,128,74,87,-25,-221
-25,-171,-146,98,61,-158,-134,127,73,86,-26,-222
-26,-172,-146,99,60,-159,-133,128,72,86,-26,-222
-26,-172,-146,99,60,-159,-134,127,71,86,-26,-222
-26,-173,-147,100,61,-160,-134,127,71,86,-27,-223
-26,-174,-148,100,61,-161,-134,127,71,85,-27,-224
-26,-174,-148,100,61,-161,-134,126,70,85,-27,-224
-26,-174,-148,100,61,-161,-134,126,70,85,-27,-224
-26,-174,-148,100,61,-161,-134,125,70,85,-27,-224
-25,-174,-149,100,62,-161,-133,125,70,86,-27,-224
-25,-173,-148,99,62,-160,-133,126,70,86,-26,-224
-25,-173,-148,99,62,-160,-132,126,70,86,-26,-224
-25,-173,-148,99,62,-160,-132,127,70,86,-27,-224
-24,-173,-149,99,63,-161,-133,126,69,85,-28,-225
-24,-173,-149,99,63,-161,-133,127,69,85,-28,-225
-24,-173,-149,99,63,-161,-132,127,70,85,-28,-225
-24,-173,-149,99,63,-161,-133,128,70,85,-28,-225
-24,-173,-149,99,63,-161,-133,128,70,85,-28,-225
-24,-173,-149,99,63,-161,-133,128,70,85,-28,-225
-24,-173,-149,99,63,-161,-133,128,70,85,-28,-225
-25,-174,-149,100,62,-161,-132,129,70,86,-26,-224
-25,-174,-149,100,62,-161,-132,129,70,86,-26,-224
-26,-174,-148,100,61,-161,-132,130,70,86,-27,-224
-26,-174,-148,100,61,-161,-132,130,70,86,-27,-225
-26,-174,-148,100,61,-161,-132,130,70,86,-27,-225
-26,-174,-148,100,61,-161,-132,130,70,85,-27,-225
-26,-174,-148,100,61,-161,-132,130,71,85,-27,-225
-26,-174,-148,100,61,-161,-132,130,71,86,-27,-225
-26,-174,-148,100,61,-161,-132,130,71,86,-27,-225
-26,-174,-148,100,61,-161,-132,130,71,86,-27,-225
-27,-174,-147,101,60,-160,-131,131,72,87,-26,-224
-27,-175,-148,101,61,-161,-131,132,72,87,-26,-225
-28,-175,-147,102,60,-161,-131,132,72,86,-26,-225
-28,-175,-147,102,60,-161,-131,133,72,86,-26,-225
-28,-175,-147,102,60,-161,-131,133,72,85,-26,-225
-27,-175,-148,101,61,-161,-130,133,72,85,-26,-225
-27,-174,-147,101,60,-160,-129,134,72,85,-25,-225
-26,-173,-147,100,61,-160,-129,133,71,85,-26,-225
-26,-173,-147,100,61,-160,-129,133,71,85,-25,-225
-26,-173,-147,100,61,-160,-128,133,71,85,-25,-224
-26,-173,-147,100,61,-160,-128,133,71,85,-25,-224
-26,-173,-147,100,61,-160,-128,133,71,85,-25,-224
-27,-173,-146,100,60,-159,-128,133,71,85,-26,-225
-28,-173,-145,101,59,-159,-127,134,72,85,-25,-224
-28,-173,-145,101,59,-159,-127,134,71,85,-26,-224
-28,-174,-146,101,59,-160,-127,133,71,85,-26,-225
-29,-174,-145,102,58,-159,-128,132,71,84,-27,-226
-30,-175,-145,103,58,-160,-128,133,72,85,-26,-225
-30,-176,-146,103,58,-161,-128,132,71,85,-26,-225
-31,-176,-145,104,57,-160,-128,133,72,87,-25,-224
-31,-176,-145,104,57,-160,-128,132,71,87,-25,-224
-31,-177,-146,104,58,-161,-129,132,71,87,-25,-224
-31,-177,-146,104,58,-161,-129,133,71,87,-25,-224
-31,-176,-145,104,57,-160,-129,133,71,86,-25,-224
-31,-176,-145,104,57,-160,-129,133,71,86,-25,-224
-31,-176,-145,104,57,-160,-129,133,71,86,-25,-224
-32,-176,-144,104,56,-160,-130,132,71,86,-25,-225
-32,-176,-144,104,56,-160,-130,132,71,87,-25,-225
-32,-176,-144,104,56,-160,-130,132,71,87,-24,-225
-33,-176,-143,105,55,-159,-130,131,70,87,-24,-225
-33,-176,-143,105,55,-159,-130,131,70,87,-24,-225
-33,-177,-144,105,56,-160,-129,132,70,88,-23,-224
-33,-177,-144,105,56,-160,-129,132,69,88,-24,-224
-34,-177,-143,106,55,-160,-129,132,69,87,-24,-224
-34,-177,-143,106,55,-160,-129,132,68,87,-24,-224
-34,-177,-143,106,55,-160,-130,132,68,86,-24,-224
-34,-177,-143,106,55,-160,-130,131,68,86,-24,-224
-34,-177,-143,106,55,-160,-130,131,68,87,-24,-223
-33,-176,-143,105,55,-159,-131,130,67,86,-24,-224
-33,-176,-143,105,55,-159,-130,130,67,86,-24,-223
-32,-176,-144,104,56,-160,-130,130,67,86,-24,-223
-32,-175,-143,104,56,-159,-130,130,67,86,-24,-223
-32,-175,-143,104,56,-159,-129,130,67,86,-24,-222
-32,-175,-143,104,56,-159,-129,130,67,86,-24,-223
-32,-175,-143,104,56,-159,-129,130,67,85,-24,-223
-32,-176,-144,104,56,-160,-129,130,67,85,-25,-223
-32,-176,-144,104,56,-160,-129,130,66,85,-25,-223
-32,-176,-144,104,56,-160,-129,130,66,85,-24,-222
-32,-176,-144,104,56,-160,-128,129,66,85,-24,-222
-32,-176,-144,104,56,-160,-128,129,66,85,-24,-222
-31,-176,-145,104,57,-160,-127,129,66,85,-24,-222
-31,-176,-145,104,57,-160,-127,129,65,85,-24,-222
-31,-176,-145,104,57,-160,-126,129,65,85,-24,-222
-30,-176,-146,103,58,-161,-127,128,64,84,-25,-223
-30,-175,-145,103,58,-160,-127,128,64,84,-25,-223
-30,-175,-145,103,58,-160,-127,129,64,85,-25,-223
-29,-175,-146,102,59,-160,-127,129,64,85,-25,-223
-29,-175,-146,102,59,-160,-126,129,65,86,-24,-223
-29,-174,-145,102,58,-159,-127,128,64,85,-25,-223
-29,-174,-145,102,58,-159,-127,128,65,86,-25,-223
-29,-174,-145,102,58,-159,-126,128,64,86,-24,-222
-28,-174,-146,101,59,-160,-126,128,64,86,-24,-222
-28,-173,-145,101,59,-159,-126,128,64,86,-24,-222
-28,-173,-145,101,59,-159,-126,129,64,86,-24,-222
-28,-173,-145,101,59,-159,-126,129,64,86,-24,-222
-28,-173,-145,101,59,-159,-127,129,64,86,-24,-222
-28,-173,-145,101,59,-159,-127,129,64,86,-24,-222
-28,-173,-145,101,59,-159,-127,129,65,86,-23,-222
-28,-173,-145,101,59,-159,-127,129,64,86,-23,-222
-28,-173,-145,101,59,-159,-127,128,64,86,-23,-222
-28,-173,-145,101,59,-159,-127,128,64,86,-24,-221
-28,-173,-145,101,59,-159,-127,128,64,85,-24,-221
-29,-173,-144,101,58,-158,-126,128,64,85,-24,-222
-29,-174,-145,102,58,-159,-126,128,63,84,-24,-222
-29,-174,-145,102,58,-159,-125,128,63,83,-24,-223
-29,-174,-145,102,58,-159,-125,128,63,83,-25,-223
-29,-174,-145,102,58,-159,-125,127,63,83,-25,-224
-29,-174,-145,102,58,-159,-125,127,63,83,-25,-224
-29,-174,-145,102,58,-159,-125,127,62,83,-25,-223
-29,-174,-145,102,58,-159,-126,126,61,83,-24,-223
-29,-175,-146,102,59,-160,-125,127,62,84,-23,-222
-29,-175,-146,102,59,-160,-125,127,61,84,-24,-222
-29,-174,-145,102,58,-159,-126,127,60,83,-25,-223
-29,-174,-145,102,58,-159,-125,127,60,83,-25,-222
-28,-174,-146,101,59,-160,-125,127,61,83,-25,-222
-27,-174,-147,101,60,-160,-124,128,62,84,-25,-222
-27,-174,-147,101,60,-160,-124,128,62,84,-24,-222
-26,-174,-148,100,61,-161,-124,127,61,83,-25,-223
-26,-174,-148,100,61,-161,-124,127,62,84,-24,-222
-26,-174,-148,100,61,-161,-124,127,62,84,-24,-222
-26,-174,-148,100,61,-161,-124,127,61,84,-24,-222
-25,-174,-149,100,62,-161,-124,127,61,85,-24,-222
-25,-173,-148,99,62,-160,-124,128,61,85,-25,-221
-24,-173,-149,99,63,-161,-125,127,60,83,-26,-223
-25,-173,-148,99,62,-160,-124,128,61,84,-26,-222
-25,-173,-148,99,62,-160,-123,127,62,84,-26,-222
-25,-173,-148,99,62,-160,-123,127,62,83,-26,-222
-25,-173,-148,99,62,-160,-123,127,62,83,-26,-222
-25,-174,-149,100,62,-161,-122,127,62,83,-26,-222
-26,-174,-148,100,61,-161,-122,126,62,83,-26,-222
-26,-175,-149,101,62,-162,-122,127,62,83,-25,-221
-26,-175,-149,101,62,-162,-122,127,62,83,-25,-221
-27,-175,-148,101,61,-161,-122,127,61,82,-25,-222
-27,-176,-149,102,61,-162,-123,127,61,82,-26,-222
-27,-176,-149,102,61,-162,-123,126,60,81,-26,-223
-28,-176,-148,102,60,-162,-123,127,61,82,-26,-223
-28,-176,-148,102,60,-162,-123,126,61,82,-26,-223
-28,-176,-148,102,60,-162,-123,126,61,81,-26,-223
-28,-177,-149,103,61,-163,-124,126,60,81,-26,-224
-28,-178,-150,103,61,-164,-124,125,60,81,-26,-224
-28,-178,-150,103,61,-164,-125,126,60,81,-26,-223
-28,-178,-150,103,61,-164,-125,126,59,80,-26,-224
-28,-178,-150,103,61,-164,-125,126,59,80,-27,-224
-29,-179,-150,104,61,-164,-124,127,59,81,-26,-223
-29,-179,-150,104,61,-164,-124,127,59,81,-26,-222
-29,-179,-150,104,61,-164,-124,126,58,81,-27,-223
-29,-179,-150,104,61,-164,-124,126,58,81,-27,-223
-30,-179,-149,105,60,-164,-124,125,58,81,-27,-223
-30,-179,-149,105,60,-164,-125,125,58,81,-26,-222
-30,-179,-149,105,60,-164,-125,125,59,82,-26,-222
-30,-179,-149,105,60,-164,-125,124,59,81,-26,-223
-30,-178,-148,104,59,-163,-125,125,58,81,-26,-222
-29,-178,-149,104,60,-163,-125,125,58,81,-26,-222
-29,-178,-149,104,60,-163,-125,126,58,81,-26,-222
-28,-178,-150,103,61,-164,-126,125,57,80,-27,-223
-28,-178,-150,103,61,-164,-125,125,57,80,-27,-223
-27,-178,-151,103,62,-164,-125,125,57,80,-27,-222
-27,-179,-152,103,63,-165,-125,124,57,80,-27,-222
-27,-179,-152,103,63,-165,-125,124,57,80,-27,-222
-28,-179,-151,104,62,-165,-124,125,58,81,-26,-221
-28,-179,-151,104,62,-165,-124,125,58,81,-26,-221
-28,-179,-151,104,62,-165,-123,125,57,81,-26,-221
-28,-179,-151,104,62,-165,-123,125,57,81,-26,-221
-29,-179,-150,104,61,-164,-123,125,56,81,-27,-221
-29,-179,-150,104,61,-164,-123,125,56,81,-27,-221
-29,-179,-150,104,61,-164,-123,125,56,81,-27,-221
-29,-179,-150,104,61,-164,-123,125,56,81,-27,-221
-29,-179,-150,104,61,-164,-123,125,56,81,-26,-220
-29,-179,-150,104,61,-164,-123,124,56,81,-26,-220
-28,-179,-151,104,62,-165,-123,124,55,82,-25,-219
-28,-178,-150,103,61,-164,-124,124,54,81,-25,-220
-28,-178,-150,103,61,-164,-124,124,54,82,-25,-220
-28,-178,-150,103,61,-164,-124,124,54,82,-25,-220
-28,-178,-150,103,61,-164,-124,125,54,82,-25,-220
-28,-178,-150,103,61,-164,-124,125,55,82,-25,-220
-28,-178,-150,103,61,-164,-124,126,55,83,-25,-220
-28,-177,-149,103,61,-163,-124,126,56,83,-25,-220
-27,-177,-150,102,62,-163,-123,126,57,83,-24,-220
-26,-177,-151,102,63,-164,-124,125,56,83,-25,-220
-26,-176,-150,101,62,-163,-124,125,57,84,-25,-220
-26,-176,-150,101,62,-163,-124,125,57,84,-24,-220
-26,-176,-150,101,62,-163,-124,126,56,84,-24,-220
-26,-176,-150,101,62,-163,-124,126,56,84,-24,-220
-25,-176,-151,101,63,-163,-124,126,55,84,-24,-220
-25,-176,-151,101,63,-163,-125,127,55,84,-24,-220
-25,-176,-151,101,63,-163,-124,127,55,84,-24,-220
-25,-176,-151,101,63,-163,-124,127,56,84,-24,-220
-25,-175,-150,100,63,-162,-125,126,55,84,-25,-220
-25,-176,-151,101,63,-163,-124,127,57,85,-24,-219
-25,-176,-151,101,63,-163,-124,127,57,85,-24,-219
-25,-176,-151,101,63,-163,-123,127,57,85,-24,-218
-26,-176,-150,101,62,-163,-123,127,57,84,-23,-218
-26,-176,-150,101,62,-163,-123,127,57,84,-23,-218
-25,-176,-151,101,63,-163,-123,127,57,84,-23,-218
-25,-176,-151,101,63,-163,-123,128,56,83,-23,-218
-26,-176,-150,101,62,-163,-123,127,56,83,-24,-219
-26,-177,-151,102,63,-164,-124,126,55,83,-24,-219
-26,-178,-152,102,63,-165,-124,126,56,83,-23,-219
-26,-178,-152,102,63,-165,-124,126,56,84,-23,-219
-27,-179,-152,103,63,-165,-125,126,55,84,-24,-220
-27,-179,-152,103,63,-165,-125,125,55,84,-24,-220
-27,-180,-153,104,63,-166,-124,126,56,85,-23,-219
-26,-180,-154,103,64,-167,-125,125,55,84,-24,-220
-26,-180,-154,103,64,-167,-124,126,55,84,-24,-220
-26,-180,-154,103,64,-167,-124,126,55,84,-24,-220
-26,-180,-154,103,64,-167,-125,125,54,84,-24,-220
-26,-180,-154,103,64,-167,-125,125,54,84,-24,-220
-26,-179,-153,103,64,-166,-125,125,54,84,-24,-220
-26,-179,-153,103,64,-166,-125,125,54,84,-24,-219
-25,-179,-154,102,65,-166,-125,125,54,84,-23,-219
-25,-179,-154,102,65,-166,-125,125,55,84,-23,-219
-26,-179,-153,103,64,-166,-125,125,55,84,-23,-219
-26,-179,-153,103,64,-166,-125,126,55,84,-23,-220
-26,-179,-153,103,64,-166,-125,126,55,84,-23,-220
-26,-179,-153,103,64,-166,-125,127,55,85,-23,-220
-27,-179,-152,103,63,-165,-125,127,55,85,-24,-221
-27,-179,-152,103,63,-165,-125,126,55,85,-24,-221
-27,-179,-152,103,63,-165,-125,126,55,85,-24,-221
-27,-180,-153,104,63,-166,-124,127,56,86,-23,-220
-28,-180,-152,104,62,-166,-124,127,55,86,-23,-220
-28,-180,-152,104,62,-166,-124,127,55,86,-23,-220
-28,-180,-152,104,62,-166,-125,127,55,85,-23,-221
-29,-180,-151,105,61,-165,-125,127,55,85,-24,-221
-29,-180,-151,105,61,-165,-125,127,54,85,-23,-221
-28,-179,-151,104,62,-165,-125,127,54,85,-23,-221
-28,-179,-151,104,62,-165,-125,127,54,86,-23,-221
-28,-179,-151,104,62,-165,-125,127,55,86,-23,-221
-28,-179,-151,104,62,-165,-124,127,55,87,-23,-221
-28,-179,-151,104,62,-165,-124,127,55,87,-22,-221
-28,-179,-151,104,62,-165,-124,128,55,87,-22,-221
-28,-179,-151,104,62,-165,-124,128,55,87,-23,-221
-29,-179,-150,104,61,-164,-124,128,55,87,-23,-221
-29,-180,-151,105,61,-165,-124,128,55,87,-23,-221
-29,-180,-151,105,61,-165,-125,128,54,87,-23,-221
-29,-180,-151,105,61,-165,-125,128,54,87,-23,-221
-29,-180,-151,105,61,-165,-124,127,54,88,-24,-221
-29,-180,-151,105,61,-165,-124,127,54,88,-23,-221
-30,-180,-150,105,60,-165,-123,128,55,89,-22,-220
-30,-181,-151,106,61,-166,-123,127,54,89,-23,-220
-31,-180,-149,106,59,-164,-123,127,54,89,-22,-220
-31,-181,-150,106,60,-165,-123,127,54,89,-22,-220
-31,-181,-150,106,60,-165,-124,127,53,89,-22,-221
-31,-181,-150,106,60,-165,-124,127,53,89,-23,-221
-31,-181,-150,106,60,-165,-124,128,53,89,-23,-221
-32,-181,-149,107,59,-165,-123,129,54,89,-22,-220
-32,-182,-150,107,59,-166,-124,128,54,89,-22,-220
-33,-183,-150,108,59,-166,-123,129,54,89,-22,-220
-33,-183,-150,108,59,-166,-123,128,54,89,-23,-220
"
		-34","
		-183","
		-149","
		109","
		58","
		-166","
		-124","
		128","
		54","
		90","
		-23","
		-220"
-35,-184,-149,110,57,-166,-123,129,55,91,-22,-219
-35,-184,-149,110,57,-166,-123,128,55,91,-22,-219
-35,-184,-149,110,57,-166,-123,128,55,90,-22,-219
-35,-184,-149,110,57,-166,-123,129,54,90,-22,-219
-35,-184,-149,110,57,-166,-123,129,54,90,-22,-220
-35,-184,-149,110,57,-166,-123,128,54,90,-22,-220
-35,-184,-149,110,57,-166,-123,128,54,90,-22,-220
-34,-184,-150,109,58,-167,-123,128,53,89,-22,-221
-35,-184,-149,110,57,-166,-121,129,54,91,-21,-219
-35,-184,-149,110,57,-166,-121,129,54,91,-21,-219
-35,-184,-149,110,57,-166,-121,129,54,91,-20,-218
-35,-183,-148,109,57,-165,-122,128,53,90,-21,-219
-35,-183,-148,109,57,-165,-121,128,53,90,-21,-219
-36,-184,-148,110,56,-166,-121,129,53,91,-21,-218
-36,-184,-148,110,56,-166,-121,129,53,91,-21,-219
-35,-184,-149,110,57,-166,-121,129,54,91,-21,-219
-35,-184,-149,110,57,-166,-121,129,54,91,-22,-220
-35,-184,-149,110,57,-166,-121,129,54,91,-22,-220
-35,-184,-149,110,57,-166,-121,129,55,91,-22,-220
-35,-183,-148,109,57,-165,-122,128,54,91,-22,-221
-35,-183,-148,109,57,-165,-121,128,54,91,-22,-221
-35,-183,-148,109,57,-165,-121,128,54,92,-23,-221
-35,-183,-148,109,57,-165,-121,129,54,92,-23,-221
-35,-183,-148,109,57,-165,-121,129,53,92,-23,-221
-35,-184,-149,110,57,-166,-120,131,54,93,-22,-220
-36,-184,-148,110,56,-166,-121,131,53,93,-22,-220
-36,-184,-148,110,56,-166,-122,130,53,93,-22,-220
-36,-184,-148,110,56,-166,-122,130,54,93,-22,-220
-37,-184,-147,111,55,-165,-122,129,54,93,-22,-220
-36,-184,-148,110,56,-166,-123,129,53,93,-22,-221
-36,-184,-148,110,56,-166,-123,129,53,93,-22,-221
-36,-184,-148,110,56,-166,-124,129,53,93,-22,-221
-36,-184,-148,110,56,-166,-124,129,53,93,-23,-221
-36,-185,-149,111,57,-167,-124,129,52,92,-23,-221
-36,-185,-149,111,57,-167,-124,129,51,92,-23,-221
-36,-185,-149,111,57,-167,-124,129,51,92,-24,-221
-36,-185,-149,111,57,-167,-124,129,50,92,-24,-221
-36,-185,-149,111,57,-167,-124,129,50,92,-24,-221
-37,-186,-149,112,56,-167,-123,129,51,93,-23,-221
-37,-186,-149,112,56,-167,-123,129,51,93,-23,-221
-37,-186,-149,112,56,-167,-123,129,51,94,-23,-221
-37,-186,-149,112,56,-167,-123,129,51,93,-23,-221
-38,-187,-149,113,56,-168,-122,130,52,94,-22,-220
-38,-187,-149,113,56,-168,-121,129,52,94,-22,-220
-38,-187,-149,113,56,-168,-121,129,52,93,-23,-221
-39,-187,-148,113,55,-167,-121,129,52,93,-23,-221
-39,-187,-148,113,55,-167,-121,129,52,93,-23,-221
-40,-188,-148,114,54,-168,-121,129,52,94,-22,-220
-40,-188,-148,114,54,-168,-121,129,52,94,-22,-221
-40,-188,-148,114,54,-168,-122,129,52,94,-22,-221
-40,-188,-148,114,54,-168,-122,128,52,94,-22,-221
-40,-189,-149,115,55,-169,-122,128,51,93,-22,-221
-40,-189,-149,115,55,-169,-122,128,51,93,-22,-221
-40,-189,-149,115,55,-169,-122,128,51,93,-22,-221
-40,-189,-149,115,55,-169,-122,128,51,92,-22,-221
-40,-190,-150,115,55,-170,-122,128,52,92,-23,-221
-41,-190,-149,116,54,-169,-120,129,53,93,-22,-220
-41,-190,-149,116,54,-169,-120,129,53,93,-22,-220
-41,-190,-149,116,54,-169,-120,129,52,93,-22,-220
-41,-190,-149,116,54,-169,-120,129,52,93,-22,-221
-41,-190,-149,116,54,-169,-120,128,52,93,-22,-221
-42,-191,-149,117,54,-170,-120,128,51,93,-22,-221
-42,-191,-149,117,54,-170,-120,128,51,93,-22,-222
-42,-191,-149,117,54,-170,-120,128,51,92,-22,-222
-43,-191,-148,117,53,-169,-119,128,52,93,-21,-221
-43,-191,-148,117,53,-169,-119,128,52,93,-21,-221
-43,-192,-149,118,53,-170,-120,129,51,93,-21,-221
-43,-192,-149,118,53,-170,-120,128,51,93,-21,-222
-43,-192,-149,118,53,-170,-120,128,52,93,-21,-222
-43,-192,-149,118,53,-170,-120,128,52,93,-21,-222
-43,-192,-149,118,53,-170,-120,128,52,93,-20,-222
-42,-192,-150,117,54,-171,-120,128,53,93,-20,-222
-42,-192,-150,117,54,-171,-120,128,53,93,-20,-222
-42,-192,-150,117,54,-171,-121,129,53,93,-20,-222
-42,-191,-149,117,54,-170,-121,128,52,93,-21,-223
-41,-191,-150,116,55,-170,-121,128,52,93,-21,-223
-41,-191,-150,116,55,-170,-121,129,53,93,-21,-222
-41,-191,-150,116,55,-170,-121,129,53,94,-21,-222
-41,-191,-150,116,55,-170,-120,129,53,94,-21,-222
-41,-191,-150,116,55,-170,-120,129,53,94,-21,-222
-40,-191,-151,116,56,-171,-120,129,53,94,-21,-222
-40,-190,-150,115,55,-170,-121,128,52,93,-22,-223
-40,-191,-151,116,56,-171,-120,129,53,94,-21,-222
-40,-191,-151,116,56,-171,-120,129,53,94,-21,-222
-39,-191,-152,115,57,-171,-120,129,51,93,-22,-223
-39,-191,-152,115,57,-171,-120,129,51,94,-22,-223
-39,-191,-152,115,57,-171,-121,129,51,93,-22,-223
-39,-191,-152,115,57,-171,-121,129,51,93,-22,-223
-39,-191,-152,115,57,-171,-121,128,51,93,-22,-223
-39,-191,-152,115,57,-171,-122,128,50,93,-22,-223
-40,-191,-151,116,56,-171,-122,128,51,93,-21,-222
-40,-192,-152,116,56,-172,-123,127,50,92,-22,-223
-41,-192,-151,117,55,-171,-123,127,50,92,-23,-224
-41,-192,-151,117,55,-171,-123,127,50,92,-23,-224
-41,-192,-151,117,55,-171,-123,127,50,92,-23,-224
-41,-193,-152,117,56,-172,-121,128,51,92,-23,-223
-41,-193,-152,117,56,-172,-121,128,51,92,-23,-223
-41,-193,-152,117,56,-172,-121,128,51,93,-23,-224
-41,-193,-152,117,56,-172,-120,128,52,93,-23,-223
-41,-193,-152,117,56,-172,-120,128,52,94,-22,-223
-41,-193,-152,117,56,-172,-120,128,51,94,-22,-223
-41,-192,-151,117,55,-171,-121,128,51,94,-23,-224
-41,-192,-151,117,55,-171,-121,128,51,95,-22,-224
-41,-192,-151,117,55,-171,-121,128,51,96,-22,-223
-41,-192,-151,117,55,-171,-121,128,50,96,-22,-223
-42,-192,-150,117,54,-171,-121,128,51,97,-21,-223
-43,-193,-150,118,54,-171,-121,128,51,97,-21,-223
-43,-194,-151,119,54,-172,-121,128,52,98,-20,-223
-43,-194,-151,119,54,-172,-122,127,52,98,-21,-223
-43,-195,-152,119,55,-173,-123,127,51,98,-22,-223
-43,-195,-152,119,55,-173,-123,126,51,98,-22,-224
-43,-195,-152,119,55,-173,-123,126,51,98,-23,-224
-43,-195,-152,119,55,-173,-123,127,52,98,-23,-224
-42,-195,-153,119,56,-174,-122,128,52,99,-22,-224
-42,-195,-153,119,56,-174,-121,129,52,100,-22,-224
-41,-194,-153,118,56,-173,-121,128,52,99,-23,-224
-41,-194,-153,118,56,-173,-120,130,53,100,-22,-224
-40,-194,-154,117,57,-174,-118,131,53,101,-22,-223
-39,-194,-155,117,58,-174,-118,130,53,101,-22,-224
-39,-194,-155,117,58,-174,-117,131,54,102,-22,-224
-38,-194,-156,116,59,-175,-117,132,55,103,-22,-223
-38,-195,-157,117,60,-176,-117,133,56,104,-21,-223
-37,-195,-158,116,61,-176,-117,134,56,105,-21,-223
-37,-195,-158,116,61,-176,-117,134,57,105,-20,-222
-36,-196,-160,116,62,-178,-118,135,57,105,-20,-222
-36,-196,-160,116,62,-178,-119,135,57,106,-20,-222
-36,-196,-160,116,62,-178,-119,135,57,106,-19,-222
-36,-196,-160,116,62,-178,-119,135,57,106,-19,-222
-36,-196,-160,116,62,-178,-119,135,58,106,-19,-222
-36,-196,-160,116,62,-178,-118,136,58,107,-18,-221
-36,-195,-159,116,62,-177,-116,138,59,107,-18,-221
-35,-195,-160,115,63,-177,-116,138,59,106,-19,-222
-35,-195,-160,115,63,-177,-115,139,59,107,-18,-222
-35,-194,-159,115,62,-176,-114,139,60,107,-18,-221
-34,-194,-160,114,63,-177,-113,140,60,107,-18,-221
-34,-194,-160,114,63,-177,-113,140,60,107,-18,-221
-34,-194,-160,114,63,-177,-114,140,60,106,-18,-221
-34,-195,-161,115,64,-178,-113,140,60,107,-18,-221
-34,-195,-161,115,64,-178,-113,140,60,106,-18,-221
-34,-196,-162,115,64,-179,-114,140,60,106,-18,-222
-35,-196,-161,116,63,-178,-114,140,60,107,-18,-221
-35,-197,-162,116,64,-179,-116,139,59,106,-18,-221
-35,-197,-162,116,64,-179,-117,138,58,106,-18,-222
-35,-197,-162,116,64,-179,-118,136,57,105,-19,-222
-35,-197,-162,116,64,-179,-121,135,56,104,-19,-222
-35,-197,-162,116,64,-179,-123,132,54,104,-19,-221
-35,-197,-162,116,64,-179,-125,131,53,103,-19,-221
-35,-197,-162,116,64,-179,-126,129,53,103,-19,-221
-35,-196,-161,116,63,-178,-128,128,52,103,-19,-220
-35,-197,-162,116,64,-179,-128,128,52,103,-18,-220
-35,-197,-162,116,64,-179,-128,128,52,103,-18,-220
-35,-197,-162,116,64,-179,-126,130,53,104,-17,-219
-35,-197,-162,116,64,-179,-126,131,53,104,-17,-219
-36,-197,-161,117,63,-179,-125,131,53,104,-17,-219
-36,-196,-160,116,62,-178,-124,132,54,103,-17,-219
-37,-196,-159,117,61,-177,-124,132,53,103,-17,-219
-37,-196,-159,117,61,-177,-124,131,53,102,-18,-220
-38,-197,-159,118,61,-178,-124,131,53,102,-18,-220
-40,-197,-157,119,59,-177,-123,130,52,102,-18,-220
-41,-198,-157,120,58,-177,-124,129,51,100,-19,-221
-43,-199,-156,121,57,-177,-123,128,51,99,-20,-222
-44,-200,-156,122,56,-178,-122,128,51,99,-20,-222
-45,-201,-156,123,56,-178,-122,129,51,98,-20,-223
-46,-201,-155,124,55,-178,-122,128,50,97,-21,-223
-46,-201,-155,124,55,-178,-122,128,50,97,-21,-224
-46,-201,-155,124,55,-178,-122,128,50,97,-21,-224
-47,-201,-154,124,54,-177,-123,128,50,97,-21,-224
-47,-200,-153,124,53,-176,-123,127,50,97,-21,-224
-47,-200,-153,124,53,-176,-123,127,50,97,-21,-224
-48,-201,-153,125,53,-177,-122,127,51,97,-20,-223
-48,-201,-153,125,53,-177,-122,126,50,97,-20,-223
-49,-201,-152,125,52,-176,-122,125,50,97,-20,-223
-49,-201,-152,125,52,-176,-122,125,49,96,-20,-223
-49,-201,-152,125,52,-176,-122,125,49,96,-20,-223
-49,-201,-152,125,52,-176,-122,125,48,96,-21,-223
-49,-201,-152,125,52,-176,-122,125,48,96,-21,-223
-50,-201,-151,126,51,-176,-122,125,49,96,-21,-224
-50,-201,-151,126,51,-176,-122,125,49,96,-21,-224
-50,-201,-151,126,51,-176,-121,125,50,97,-21,-224
-51,-200,-149,126,49,-174,-121,125,50,97,-21,-224
-51,-200,-149,126,49,-174,-121,125,51,98,-20,-224
-51,-200,-149,126,49,-174,-120,125,51,98,-20,-224
-51,-199,-148,125,49,-173,-120,125,51,98,-20,-224
-51,-199,-148,125,49,-173,-120,126,51,98,-20,-224
-51,-199,-148,125,49,-173,-119,126,51,99,-20,-224
-51,-199,-148,125,49,-173,-119,127,51,99,-20,-225
-51,-199,-148,125,49,-173,-119,127,51,99,-20,-225
-51,-199,-148,125,49,-173,-119,127,51,100,-20,-225
-51,-198,-147,125,48,-172,-119,127,51,100,-20,-224
-51,-198,-147,125,48,-172,-118,127,51,101,-20,-224
-51,-197,-146,124,48,-171,-119,126,50,100,-21,-225
-51,-197,-146,124,48,-171,-119,126,51,101,-21,-225
-51,-198,-147,125,48,-172,-118,128,52,101,-20,-224
-51,-198,-147,125,48,-172,-117,129,53,101,-21,-225
-52,-199,-147,126,48,-173,-116,131,54,100,-22,-226
-53,-200,-147,127,47,-173,-114,135,57,101,-22,-226
-53,-202,-149,128,48,-175,-111,138,60,102,-23,-227
-53,-203,-150,128,49,-176,-109,142,62,102,-24,-229
-53,-204,-151,129,49,-177,-106,146,66,102,-26,-230
-52,-204,-152,128,50,-178,-104,149,71,104,-26,-231
-51,-203,-152,127,51,-177,-103,151,76,107,-26,-231
-50,-202,-152,126,51,-177,-101,154,84,112,-24,-230
-48,-200,-152,124,52,-176,-102,157,91,117,-21,-229
-45,-197,-152,121,54,-174,-102,161,101,126,-16,-225
-41,-195,-154,118,57,-174,-100,169,114,138,-9,-221
-37,-191,-154,114,59,-172,-96,182,132,154,0,-215
-32,-186,-154,109,61,-170,-91,197,154,173,12,-207
-26,-177,-151,102,63,-164,-88,214,180,198,28,-197
-19,-165,-146,92,64,-155,-87,228,210,228,49,-182
-12,-148,-136,80,62,-142,-92,235,240,264,74,-164
-4,-126,-122,65,59,-124,-106,231,270,305,106,-141
4,-99,-103,48,54,-101,-130,213,299,352,142,-114
13,-69,-82,28,48,-75,-161,180,322,401,181,-84
20,-40,-60,10,40,-50,-197,138,343,451,221,-55
26,-15,-41,-5,34,-28,-231,91,363,500,258,-27
27,4,-23,-15,25,-9,-263,43,379,542,287,-6
24,16,-8,-20,16,4,-287,-2,391,573,307,9
16,19,3,-17,7,11,-301,-42,393,590,316,14
4,12,8,-8,-2,10,-309,-78,381,584,310,10
-9,-5,4,7,-6,0,-311,-105,348,549,287,-5
-25,-29,-4,27,-10,-16,-304,-122,294,490,252,-26
-42,-57,-15,50,-13,-36,-293,-131,220,408,206,-54
-57,-86,-29,72,-14,-57,-281,-137,133,312,151,-90
-70,-116,-46,93,-12,-81,-267,-133,50,218,96,-124
-80,-141,-61,111,-9,-101,-256,-125,-23,134,45,-158
-88,-161,-73,125,-7,-117,-245,-114,-75,73,6,-185
-91,-176,-85,134,-3,-130,-239,-102,-105,34,-24,-207
-90,-188,-98,139,4,-143,-238,-90,-114,16,-43,-223
-85,-196,-111,141,13,-153,-239,-77,-107,14,-53,-232
-79,-203,-124,141,23,-163,-237,-60,-92,21,-55,-236
-73,-210,-137,142,32,-173,-233,-41,-74,30,-56,-240
-68,-216,-148,142,40,-182,-226,-20,-56,40,-55,-241
-62,-220,-158,141,48,-189,-217,0,-38,50,-52,-241
-57,-224,-167,141,55,-195,-204,21,-23,57,-50,-242
-53,-227,-174,140,61,-200,-190,42,-7,66,-47,-241
-50,-228,-178,139,64,-203,-176,62,7,74,-44,-240
-47,-226,-179,137,66,-202,-162,80,21,83,-39,-236
-44,-222,-178,133,67,-200,-150,96,34,90,-35,-234
-42,-216,-174,129,66,-195,-137,112,47,100,-29,-229
-40,-210,-170,125,65,-190,-129,125,58,107,-24,-225
-39,-203,-164,121,63,-183,-122,135,67,114,-19,-222
-39,-196,-157,118,59,-176,-117,144,75,120,-14,-218
-39,-192,-153,116,57,-172,-113,151,82,125,-10,-215
-39,-189,-150,114,56,-169,-110,156,85,127,-8,-214
-40,-187,-147,114,54,-167,-109,159,87,128,-8,-214
-40,-186,-146,113,53,-166,-108,161,89,129,-7,-214
-41,-186,-145,114,52,-165,-108,162,89,129,-8,-214
-41,-186,-145,114,52,-165,-107,163,90,129,-8,-215
-41,-187,-146,114,53,-166,-105,165,92,130,-7,-214
-40,-187,-147,114,54,-167,-105,165,92,130,-7,-215
-40,-186,-146,113,53,-166,-104,166,93,131,-7,-215
-40,-186,-146,113,53,-166,-103,168,94,132,-6,-215
-40,-186,-146,113,53,-166,-102,170,94,132,-6,-214
-40,-186,-146,113,53,-166,-101,171,95,133,-6,-214
-40,-186,-146,113,53,-166,-101,173,96,133,-6,-214
-40,-186,-146,113,53,-166,-100,174,97,134,-5,-214
-40,-186,-146,113,53,-166,-100,176,99,135,-5,-214
-39,-185,-146,112,54,-165,-100,176,99,135,-5,-215
-39,-185,-146,112,54,-165,-100,176,102,136,-4,-215
-38,-184,-146,111,54,-165,-99,177,103,138,-3,-214
-38,-184,-146,111,54,-165,-98,179,105,139,-2,-213
-38,-184,-146,111,54,-165,-97,180,105,140,-1,-212
-38,-183,-145,111,54,-164,-98,180,105,140,-1,-212
-38,-183,-145,111,54,-164,-97,181,106,140,-1,-211
-39,-183,-144,111,53,-163,-97,184,107,142,0,-210
-39,-183,-144,111,53,-163,-97,185,108,142,-1,-210
-40,-184,-144,112,52,-164,-98,185,109,142,-1,-210
-40,-184,-144,112,52,-164,-98,185,110,142,-1,-210
-40,-184,-144,112,52,-164,-98,185,111,143,-1,-210
-41,-184,-143,113,51,-163,-97,186,113,145,1,-209
-41,-184,-143,113,51,-163,-97,187,114,146,2,-209
-41,-184,-143,113,51,-163,-96,187,114,147,2,-208
-41,-184,-143,113,51,-163,-95,188,115,148,3,-208
-41,-184,-143,113,51,-163,-95,190,115,148,3,-208
-41,-184,-143,113,51,-163,-94,191,115,148,3,-208
-40,-184,-144,112,52,-164,-95,191,114,148,2,-208
-40,-184,-144,112,52,-164,-95,192,115,148,2,-208
-40,-184,-144,112,52,-164,-95,192,116,149,2,-207
-39,-183,-144,111,53,-163,-95,193,118,151,3,-207
-38,-183,-145,111,54,-164,-95,193,119,151,4,-207
-38,-181,-143,110,53,-162,-94,194,120,153,5,-205
-37,-181,-144,109,54,-162,-95,194,121,153,5,-205
-37,-181,-144,109,54,-162,-94,195,122,154,6,-205
-37,-180,-143,109,53,-161,-93,197,123,155,7,-204
-37,-180,-143,109,53,-161,-92,199,124,156,7,-204
-37,-180,-143,109,53,-161,-92,200,125,156,7,-203
-37,-180,-143,109,53,-161,-92,201,127,157,8,-203
-37,-179,-142,108,53,-160,-91,202,129,158,8,-203
-36,-179,-143,108,54,-161,-91,202,130,159,8,-203
-36,-178,-142,107,53,-160,-90,203,133,160,9,-203
-36,-178,-142,107,53,-160,-90,204,134,162,11,-202
-36,-178,-142,107,53,-160,-89,205,135,163,12,-201
-36,-177,-141,107,53,-159,-89,206,136,165,13,-201
-36,-176,-140,106,52,-158,-89,207,136,165,13,-201
-36,-176,-140,106,52,-158,-89,209,137,166,14,-200
-35,-176,-141,106,53,-158,-89,210,138,167,15,-199
-35,-175,-140,105,53,-157,-88,211,140,169,15,-198
-35,-175,-140,105,53,-157,-88,212,142,171,16,-198
-34,-174,-140,104,53,-157,-88,212,144,172,16,-198
"
		-34","
		-173","
		-139","
		104","
		53","
		-156","
		-88","
		214","
		146","
		174","
		17","
		-197"
-34,-173,-139,104,53,-156,-87,215,148,176,19,-197
-34,-172,-138,103,52,-155,-87,217,149,177,19,-196
-34,-171,-137,103,52,-154,-86,219,152,179,21,-195
-34,-170,-136,102,51,-153,-85,222,154,180,22,-194
-34,-169,-135,102,51,-152,-85,224,155,181,22,-194
-33,-169,-136,101,52,-152,-85,226,157,183,23,-193
-32,-168,-136,100,52,-152,-86,227,159,184,24,-193
-31,-167,-136,99,53,-151,-85,229,162,186,25,-191
-30,-166,-136,98,53,-151,-86,230,164,188,26,-191
-30,-165,-135,98,53,-150,-85,231,167,191,28,-189
-29,-164,-135,97,53,-149,-85,233,169,192,29,-188
-28,-163,-135,96,54,-149,-85,235,170,194,30,-188
-27,-162,-135,95,54,-148,-84,238,173,197,32,-186
-27,-161,-134,94,54,-147,-84,240,174,198,33,-186
-27,-161,-134,94,54,-147,-84,243,177,201,34,-185
-26,-160,-134,93,54,-147,-83,246,180,204,36,-183
-26,-159,-133,93,54,-146,-83,248,182,206,37,-183
-25,-158,-133,92,54,-145,-82,251,186,209,39,-181
-25,-157,-132,91,54,-144,-82,252,189,211,40,-181
-24,-156,-132,90,54,-144,-81,255,193,215,42,-179
-24,-154,-130,89,53,-142,-80,257,195,217,44,-179
-24,-153,-129,89,53,-141,-79,260,199,221,46,-177
-24,-151,-127,88,52,-139,-78,263,202,224,47,-176
-23,-150,-127,87,52,-138,-78,266,205,226,49,-175
-23,-148,-125,86,51,-136,-77,270,209,230,52,-173
-22,-147,-125,85,52,-136,-76,273,212,233,53,-172
-21,-146,-125,84,52,-135,-76,276,216,237,55,-170
-20,-144,-124,82,52,-134,-76,279,220,241,58,-168
-19,-142,-123,81,52,-132,-75,282,225,245,61,-167
-18,-140,-122,79,52,-131,-74,285,230,249,63,-165
-17,-138,-121,78,52,-129,-73,288,234,253,66,-162
-16,-135,-119,76,52,-127,-73,291,238,258,69,-160
-15,-133,-118,74,52,-125,-72,294,243,262,72,-158
-14,-131,-117,73,52,-124,-71,298,247,266,75,-156
-13,-129,-116,71,52,-122,-70,301,252,271,78,-154
-12,-127,-115,70,52,-121,-70,305,257,275,81,-151
-11,-125,-114,68,52,-119,-69,308,262,280,84,-149
-9,-123,-114,66,53,-118,-69,310,268,284,88,-146
-8,-120,-112,64,52,-116,-70,312,272,288,90,-144
-7,-118,-111,63,52,-114,-70,314,277,293,93,-142
-6,-115,-109,61,52,-112,-70,317,281,297,97,-139
-5,-112,-107,59,51,-109,-69,319,286,301,100,-136
-4,-109,-105,57,51,-107,-70,321,289,305,103,-135
-3,-107,-104,55,51,-105,-69,324,293,309,106,-132
-2,-104,-102,53,50,-103,-68,327,297,313,109,-129
-1,-102,-101,52,50,-101,-68,329,301,317,112,-127
0,-100,-100,50,50,-100,-68,330,304,322,115,-125
1,-98,-99,49,50,-98,-68,332,308,326,117,-123
2,-96,-98,47,50,-97,-68,332,312,330,120,-121
3,-93,-96,45,50,-94,-68,333,315,333,123,-118
3,-91,-94,44,49,-92,-69,333,318,337,126,-117
3,-89,-92,43,48,-90,-69,333,320,340,128,-115
4,-87,-91,42,48,-89,-69,333,322,342,130,-113
4,-84,-88,40,46,-86,-70,333,323,344,132,-112
5,-83,-88,39,47,-85,-70,333,325,347,134,-110
6,-82,-88,38,47,-85,-71,332,326,348,135,-110
7,-81,-88,37,48,-84,-72,330,326,348,135,-109
7,-80,-87,37,47,-83,-72,328,327,349,137,-108
7,-80,-87,37,47,-83,-73,325,326,349,137,-108
7,-80,-87,37,47,-83,-74,322,325,348,136,-109
6,-80,-86,37,46,-83,-74,317,322,345,135,-110
5,-81,-86,38,46,-83,-74,314,319,343,134,-110
4,-82,-86,39,45,-84,-74,310,315,340,132,-111
3,-83,-86,40,45,-84,-75,305,308,334,128,-115
2,-85,-87,42,45,-86,-75,300,302,328,124,-117
0,-88,-88,44,44,-88,-75,296,296,323,121,-119
-1,-91,-90,46,45,-90,-77,290,288,316,116,-123
-3,-94,-91,49,44,-92,-77,284,280,308,111,-126
-5,-97,-92,51,44,-94,-78,278,272,301,107,-129
-7,-101,-94,54,44,-97,-78,271,263,294,102,-132
-8,-104,-96,56,44,-100,-80,264,253,285,96,-136
-10,-108,-98,59,44,-103,-81,258,244,277,91,-139
-12,-112,-100,62,44,-106,-82,252,235,268,86,-143
-14,-116,-102,65,44,-109,-83,247,225,260,81,-146
-16,-120,-104,68,44,-112,-84,242,216,251,75,-150
-18,-124,-106,71,44,-115,-86,236,207,243,69,-154
-19,-129,-110,74,46,-119,-87,231,199,235,64,-158
-21,-133,-112,77,46,-122,-89,225,190,227,58,-162
-23,-137,-114,80,46,-125,-90,220,182,220,54,-165
-25,-141,-116,83,46,-128,-91,215,175,213,49,-168
-26,-145,-119,86,47,-132,-92,210,167,207,45,-171
-28,-149,-121,89,47,-135,-92,206,160,201,41,-173
-30,-152,-122,91,46,-137,-94,201,152,195,37,-176
-31,-156,-125,94,47,-140,-95,197,146,189,33,-179
-32,-159,-127,96,48,-143,-96,193,139,183,29,-182
-33,-162,-129,98,48,-145,-97,190,134,178,26,-184
-35,-165,-130,100,48,-147,-98,185,128,173,23,-187
-36,-167,-131,102,48,-149,-99,181,122,168,20,-189
-37,-170,-133,104,48,-151,-99,179,119,166,18,-191
-38,-172,-134,105,48,-153,-100,176,114,162,16,-192
-38,-174,-136,106,49,-155,-102,172,109,159,13,-194
-39,-175,-136,107,49,-155,-102,170,106,156,12,-195
-40,-177,-137,109,49,-157,-102,168,103,153,10,-196
-40,-179,-139,110,50,-159,-103,167,100,151,9,-197
-41,-180,-139,111,49,-159,-104,164,96,148,6,-199
-41,-181,-140,111,50,-160,-105,163,94,146,5,-199
-42,-183,-141,113,50,-162,-105,162,93,145,4,-200
-42,-184,-142,113,50,-163,-106,160,91,143,2,-201
-42,-185,-143,114,51,-164,-106,158,89,142,1,-202
-42,-186,-144,114,51,-165,-106,157,88,141,1,-202
-42,-186,-144,114,51,-165,-107,155,86,140,0,-203
-43,-187,-144,115,51,-165,-107,154,84,139,-1,-203
-43,-188,-145,116,51,-166,-106,154,83,139,-1,-203
-44,-189,-145,117,51,-167,-107,152,81,137,-2,-205
-45,-190,-145,118,50,-167,-106,152,80,136,-3,-205
-45,-191,-146,118,51,-168,-107,151,78,135,-4,-206
-45,-191,-146,118,51,-168,-107,150,77,134,-5,-207
-46,-192,-146,119,50,-169,-107,149,77,134,-5,-207
-46,-192,-146,119,50,-169,-108,148,77,134,-5,-207
-46,-193,-147,120,51,-170,-108,147,76,134,-5,-207
-46,-193,-147,120,51,-170,-109,146,76,134,-5,-207
-46,-193,-147,120,51,-170,-109,146,76,134,-5,-207
-46,-193,-147,120,51,-170,-109,146,75,134,-5,-208
-46,-192,-146,119,50,-169,-109,146,74,134,-5,-208
-46,-192,-146,119,50,-169,-109,146,74,133,-5,-208
-46,-193,-147,120,51,-170,-109,146,73,133,-5,-208
-46,-193,-147,120,51,-170,-109,146,73,133,-5,-208
-46,-193,-147,120,51,-170,-109,145,73,133,-6,-208
-46,-193,-147,120,51,-170,-110,145,73,133,-6,-208
-46,-194,-148,120,51,-171,-109,145,74,134,-5,-207
-46,-193,-147,120,51,-170,-110,144,73,133,-6,-208
-46,-193,-147,120,51,-170,-110,144,73,133,-6,-207
-47,-193,-146,120,50,-169,-109,144,73,133,-5,-206
-47,-193,-146,120,50,-169,-109,144,73,133,-6,-207
-48,-194,-146,121,49,-170,-109,145,72,132,-7,-207
-48,-194,-146,121,49,-170,-110,145,72,132,-7,-207
-49,-194,-145,122,48,-169,-109,146,73,132,-6,-207
-50,-195,-145,123,48,-170,-109,146,72,132,-6,-207
-51,-195,-144,123,47,-169,-109,147,73,133,-6,-206
-51,-196,-145,124,47,-170,-109,146,73,133,-6,-206
-51,-196,-145,124,47,-170,-109,146,73,133,-6,-206
-52,-196,-144,124,46,-170,-109,146,73,133,-6,-206
-52,-196,-144,124,46,-170,-109,146,73,133,-6,-207
-52,-196,-144,124,46,-170,-109,145,73,133,-7,-207
-53,-196,-143,125,45,-169,-109,146,73,133,-6,-206
-53,-197,-144,125,46,-170,-109,147,73,133,-6,-207
-53,-197,-144,125,46,-170,-110,147,73,132,-7,-208
-53,-198,-145,126,46,-171,-110,147,73,132,-7,-208
-53,-198,-145,126,46,-171,-111,146,73,132,-7,-208
-54,-198,-144,126,45,-171,-110,147,74,133,-6,-208
-54,-199,-145,127,46,-172,-110,147,75,133,-6,-208
-54,-198,-144,126,45,-171,-110,147,75,134,-6,-208
-54,-198,-144,126,45,-171,-110,147,74,134,-6,-208
-55,-198,-143,127,44,-170,-110,147,74,133,-7,-209
-55,-198,-143,127,44,-170,-110,148,73,133,-7,-210
-56,-198,-142,127,43,-170,-110,148,73,132,-8,-210
-56,-199,-143,128,44,-171,-110,148,74,133,-8,-210
-57,-199,-142,128,43,-170,-110,148,73,132,-9,-211
-57,-200,-143,129,43,-171,-110,148,73,132,-10,-211
-57,-200,-143,129,43,-171,-110,148,73,132,-10,-211
-57,-200,-143,129,43,-171,-110,148,72,132,-9,-211
-57,-200,-143,129,43,-171,-110,149,72,132,-9,-211
-57,-199,-142,128,43,-170,-110,149,72,132,-9,-211
-58,-199,-141,129,42,-170,-110,149,72,132,-9,-211
-58,-199,-141,129,42,-170,-110,148,72,131,-9,-212
-58,-200,-142,129,42,-171,-109,149,73,132,-9,-211
-58,-200,-142,129,42,-171,-110,149,73,131,-9,-212
-58,-200,-142,129,42,-171,-110,148,73,131,-9,-212
-59,-201,-142,130,42,-171,-110,148,73,131,-9,-212
-58,-201,-143,130,43,-172,-110,148,73,131,-9,-212
-58,-201,-143,130,43,-172,-110,148,73,131,-9,-211
-58,-200,-142,129,42,-171,-109,148,73,132,-8,-211
-58,-200,-142,129,42,-171,-108,149,73,132,-8,-211
-58,-199,-141,129,42,-170,-109,148,72,131,-9,-212
-58,-199,-141,129,42,-170,-108,148,72,131,-10,-213
-57,-199,-142,128,43,-170,-107,148,73,131,-10,-213
-57,-198,-141,128,42,-169,-107,148,73,131,-10,-213
-57,-198,-141,128,42,-169,-107,148,73,131,-10,-213
-56,-198,-142,127,43,-170,-109,147,72,130,-12,-214
-56,-198,-142,127,43,-170,-109,146,72,131,-12,-214
-56,-198,-142,127,43,-170,-110,146,72,131,-11,-214
-56,-198,-142,127,43,-170,-110,146,71,130,-12,-214
-57,-199,-142,128,43,-170,-110,146,71,131,-11,-214
-58,-200,-142,129,42,-171,-109,147,71,131,-11,-213
-58,-200,-142,129,42,-171,-109,146,70,131,-11,-214
-58,-201,-143,130,43,-172,-109,146,70,130,-11,-215
-58,-201,-143,130,43,-172,-109,146,69,130,-12,-215
-58,-202,-144,130,43,-173,-109,145,69,130,-12,-215
-58,-202,-144,130,43,-173,-109,145,69,130,-12,-215
-58,-202,-144,130,43,-173,-109,144,68,130,-11,-216
-58,-202,-144,130,43,-173,-109,144,69,130,-11,-215
-58,-201,-143,130,43,-172,-108,144,68,131,-11,-215
-58,-201,-143,130,43,-172,-108,144,68,131,-11,-215
-57,-201,-144,129,44,-172,-108,144,68,131,-11,-215
-57,-201,-144,129,44,-172,-108,144,68,131,-12,-216
-57,-201,-144,129,44,-172,-108,144,67,130,-13,-216
-57,-201,-144,129,44,-172,-108,144,67,130,-13,-216
-56,-201,-145,129,45,-173,-110,142,65,128,-15,-218
-57,-202,-145,130,44,-173,-109,143,66,128,-15,-217
-57,-202,-145,130,44,-173,-110,142,65,128,-15,-217
-58,-203,-145,131,44,-174,-110,142,66,128,-14,-216
-58,-203,-145,131,44,-174,-110,141,65,127,-14,-216
-58,-203,-145,131,44,-174,-111,141,64,127,-14,-216
-59,-204,-145,132,43,-174,-111,140,63,126,-15,-216
-59,-204,-145,132,43,-174,-112,140,62,125,-15,-217
-59,-204,-145,132,43,-174,-112,140,62,125,-16,-217
-58,-204,-146,131,44,-175,-112,140,61,124,-16,-217
-58,-205,-147,132,45,-176,-112,139,61,124,-17,-218
-59,-206,-147,133,44,-176,-112,139,61,125,-16,-217
-59,-206,-147,133,44,-176,-112,139,61,125,-16,-217
-59,-206,-147,133,44,-176,-112,138,61,125,-16,-217
-58,-206,-148,132,45,-177,-112,138,61,124,-16,-218
-58,-206,-148,132,45,-177,-112,138,61,124,-16,-218
-58,-206,-148,132,45,-177,-112,138,61,123,-17,-218
-58,-206,-148,132,45,-177,-113,138,60,122,-17,-219
-59,-206,-147,133,44,-176,-113,138,59,121,-18,-220
-59,-206,-147,133,44,-176,-114,137,59,121,-19,-221
-59,-207,-148,133,45,-177,-114,136,58,120,-20,-222
-59,-207,-148,133,45,-177,-115,135,58,120,-20,-222
-60,-207,-147,134,44,-177,-114,135,58,120,-19,-222
-60,-208,-148,134,44,-178,-114,135,57,120,-19,-222
-61,-208,-147,135,43,-177,-114,134,56,120,-20,-222
-62,-209,-147,136,43,-178,-113,134,57,121,-19,-222
-63,-209,-146,136,42,-177,-114,134,56,120,-20,-222
-63,-209,-146,136,42,-177,-114,134,56,120,-20,-223
-64,-210,-146,137,41,-178,-113,135,57,121,-19,-222
-64,-210,-146,137,41,-178,-114,135,57,121,-20,-222
-64,-210,-146,137,41,-178,-114,135,57,121,-20,-223
-64,-210,-146,137,41,-178,-114,136,58,121,-20,-222
-64,-210,-146,137,41,-178,-113,135,58,122,-19,-222
-64,-210,-146,137,41,-178,-113,135,58,122,-20,-222
-64,-210,-146,137,41,-178,-113,135,58,122,-20,-222
-64,-210,-146,137,41,-178,-113,135,57,122,-19,-222
-64,-210,-146,137,41,-178,-113,135,57,121,-19,-221
-65,-210,-145,138,40,-177,-113,135,57,121,-19,-222
-65,-210,-145,138,40,-177,-114,135,57,120,-19,-222
-65,-209,-144,137,40,-176,-114,135,57,120,-20,-222
-66,-209,-143,138,39,-176,-114,135,57,120,-20,-222
-66,-209,-143,138,39,-176,-114,134,57,120,-19,-222
-66,-209,-143,138,39,-176,-115,134,57,120,-19,-222
-66,-209,-143,138,39,-176,-115,133,56,120,-19,-221
-67,-210,-143,139,38,-176,-114,134,57,120,-19,-220
-67,-210,-143,139,38,-176,-114,134,56,120,-19,-220
-67,-210,-143,139,38,-176,-114,134,56,120,-20,-220
-67,-210,-143,139,38,-176,-114,134,56,120,-20,-221
-66,-211,-145,139,40,-178,-114,134,55,119,-21,-221
-66,-211,-145,139,40,-178,-114,134,55,119,-21,-221
-66,-210,-144,138,39,-177,-114,134,55,119,-21,-221
-66,-210,-144,138,39,-177,-114,134,55,118,-21,-221
-66,-210,-144,138,39,-177,-114,133,55,118,-21,-221
-66,-211,-145,139,40,-178,-115,132,54,118,-21,-221
-67,-211,-144,139,39,-177,-115,132,54,117,-21,-221
-67,-211,-144,139,39,-177,-115,132,53,117,-22,-221
-68,-212,-144,140,38,-178,-114,133,53,118,-21,-220
-68,-212,-144,140,38,-178,-115,133,53,118,-21,-221
-68,-213,-145,141,39,-179,-115,133,53,118,-21,-221
-69,-212,-143,141,37,-177,-115,133,53,118,-21,-220
-69,-212,-143,141,37,-177,-115,133,53,118,-21,-220
-69,-212,-143,141,37,-177,-115,133,53,118,-21,-220
-69,-212,-143,141,37,-177,-115,133,54,118,-21,-220
-69,-211,-142,140,37,-176,-115,133,54,118,-21,-220
-69,-211,-142,140,37,-176,-115,133,54,118,-21,-219
-68,-211,-143,140,38,-177,-115,133,53,118,-21,-219
-68,-211,-143,140,38,-177,-114,133,53,118,-22,-219
-68,-210,-142,139,37,-176,-115,133,52,117,-23,-220
-68,-210,-142,139,37,-176,-115,133,52,117,-23,-220
-68,-210,-142,139,37,-176,-115,133,52,117,-23,-220
-67,-210,-143,139,38,-176,-115,133,53,117,-23,-220
-67,-210,-143,139,38,-176,-115,133,53,117,-23,-220
-67,-209,-142,138,38,-175,-115,133,54,117,-23,-219
-66,-209,-143,138,39,-176,-115,132,53,116,-23,-220
-67,-209,-142,138,38,-175,-114,133,54,117,-22,-219
-67,-209,-142,138,38,-175,-115,132,53,117,-22,-219
-67,-209,-142,138,38,-175,-115,133,53,117,-22,-219
-67,-209,-142,138,38,-175,-115,133,52,117,-22,-219
-68,-209,-141,139,37,-175,-115,133,52,117,-22,-220
-68,-209,-141,139,37,-175,-116,133,52,117,-23,-220
-68,-209,-141,139,37,-175,-116,133,52,118,-23,-220
-68,-209,-141,139,37,-175,-116,133,53,118,-23,-220
-68,-209,-141,139,37,-175,-116,133,53,118,-23,-220
-69,-209,-140,139,36,-174,-116,133,53,118,-23,-221
-69,-209,-140,139,36,-174,-115,133,53,118,-22,-221
-69,-209,-140,139,36,-174,-115,133,54,117,-22,-221
-69,-209,-140,139,36,-174,-115,133,54,117,-23,-221
-69,-209,-140,139,36,-174,-114,133,54,117,-23,-221
-69,-209,-140,139,36,-174,-114,133,54,116,-23,-221
-69,-209,-140,139,36,-174,-114,133,53,116,-24,-222
-70,-209,-139,140,35,-174,-112,133,54,117,-23,-221
-70,-209,-139,140,35,-174,-112,133,54,117,-23,-220
-70,-209,-139,140,35,-174,-112,133,54,117,-23,-220
-70,-209,-139,140,35,-174,-111,133,53,117,-22,-220
-71,-209,-138,140,34,-173,-111,133,53,118,-22,-220
-71,-209,-138,140,34,-173,-111,133,53,118,-23,-220
-70,-209,-139,140,35,-174,-111,133,53,118,-23,-220
-70,-209,-139,140,35,-174,-111,133,53,118,-23,-221
-71,-209,-138,140,34,-173,-111,134,54,118,-23,-221
-71,-209,-138,140,34,-173,-112,133,54,118,-23,-221
-71,-209,-138,140,34,-173,-113,133,54,117,-23,-222
-71,-209,-138,140,34,-173,-113,133,54,117,-23,-222
-71,-209,-138,140,34,-173,-113,133,54,117,-23,-222
-71,-209,-138,140,34,-173,-114,133,54,117,-23,-222
-71,-209,-138,140,34,-173,-114,133,54,116,-23,-222
-71,-209,-138,140,34,-173,-115,133,54,116,-23,-223
-71,-209,-138,140,34,-173,-115,133,53,115,-24,-223
-71,-209,-138,140,34,-173,-115,133,53,115,-24,-223
