I,II,III,aVR,aVL,aVF,V1,V2,V3,V4,V5,V6
118,154,36,-136,41,95,-228,-174,-335,-366,-350,-234
119,157,38,-138,41,98,-228,-174,-334,-366,-350,-235
119,160,41,-139,39,101,-228,-174,-333,-365,-350,-235
120,162,42,-141,39,102,-228,-174,-333,-364,-350,-236
120,163,43,-141,39,103,-227,-174,-332,-364,-350,-237
119,161,42,-140,39,102,-229,-175,-332,-364,-350,-237
119,159,40,-139,40,100,-230,-176,-334,-365,-350,-236
119,156,37,-137,41,97,-231,-177,-335,-366,-350,-235
118,153,35,-135,42,94,-230,-176,-335,-366,-351,-234
118,152,34,-135,42,93,-230,-176,-336,-366,-351,-234
118,154,36,-136,41,95,-229,-175,-334,-365,-350,-234
118,157,39,-137,40,98,-228,-174,-333,-364,-349,-234
119,160,41,-139,39,101,-228,-174,-333,-364,-349,-235
120,163,43,-141,39,103,-228,-174,-332,-363,-349,-236
121,164,43,-142,39,104,-228,-175,-333,-364,-350,-237
120,162,42,-141,39,102,-229,-176,-333,-364,-350,-237
119,159,40,-139,40,100,-229,-176,-334,-364,-350,-236
118,156,38,-137,40,97,-230,-177,-335,-366,-351,-236
117,153,36,-135,41,95,-230,-177,-336,-367,-351,-236
117,152,35,-134,41,94,-229,-176,-335,-366,-349,-234
119,154,35,-136,42,95,-230,-176,-335,-366,-350,-235
120,157,37,-138,42,97,-229,-174,-334,-364,-349,-235
120,160,40,-140,40,100,-229,-174,-333,-363,-348,-235
120,161,41,-140,40,101,-227,-173,-331,-362,-347,-234
120,162,42,-141,39,102,-227,-174,-331,-363,-348,-235
120,162,42,-141,39,102,-227,-175,-331,-363,-348,-235
120,160,40,-140,40,100,-229,-176,-333,-364,-349,-235
119,157,38,-138,41,98,-231,-177,-334,-366,-350,-235
118,154,36,-136,41,95,-230,-176,-334,-365,-350,-233
119,153,34,-136,43,94,-230,-176,-334,-365,-350,-233
120,154,34,-137,43,94,-230,-175,-334,-365,-349,-233
120,156,36,-138,42,96,-228,-174,-333,-364,-348,-233
120,159,39,-139,41,99,-226,-173,-331,-362,-347,-233
121,162,41,-141,40,102,-225,-172,-329,-362,-346,-233
121,163,42,-142,40,103,-226,-173,-330,-362,-346,-234
120,161,41,-140,40,101,-227,-174,-331,-363,-347,-234
119,159,40,-139,40,100,-228,-175,-332,-364,-348,-234
118,156,38,-137,40,97,-229,-176,-334,-365,-349,-234
118,153,35,-135,42,94,-230,-176,-335,-365,-349,-233
118,153,35,-135,42,94,-230,-176,-335,-365,-349,-233
119,155,36,-137,42,96,-229,-175,-335,-364,-349,-232
120,157,37,-138,42,97,-229,-173,-333,-363,-348,-232
121,160,39,-140,41,100,-228,-172,-331,-362,-347,-232
121,162,41,-141,40,102,-227,-172,-329,-362,-346,-233
121,163,42,-142,40,103,-227,-172,-329,-361,-346,-233
120,162,42,-141,39,102,-228,-174,-331,-363,-348,-234
119,160,41,-139,39,101,-229,-175,-333,-365,-349,-235
119,158,39,-138,40,99,-230,-176,-335,-365,-349,-235
118,155,37,-136,41,96,-230,-176,-335,-366,-349,-233
118,153,35,-135,42,94,-229,-176,-335,-365,-348,-232
118,155,37,-136,41,96,-228,-175,-335,-365,-348,-232
118,157,39,-137,40,98,-226,-172,-333,-363,-346,-231
119,160,41,-139,39,101,-226,-172,-332,-362,-346,-232
120,163,43,-141,39,103,-226,-172,-331,-362,-345,-232
120,163,43,-141,39,103,-226,-172,-330,-362,-346,-233
119,162,43,-140,38,103,-227,-172,-330,-362,-346,-233
118,159,41,-138,39,100,-228,-173,-332,-363,-347,-233
118,157,39,-137,40,98,-229,-175,-333,-365,-348,-233
117,154,37,-135,40,96,-229,-176,-334,-365,-348,-232
117,153,36,-135,41,95,-229,-175,-335,-365,-348,-232
118,155,37,-136,41,96,-229,-175,-335,-365,-348,-232
119,158,39,-138,40,99,-227,-174,-333,-364,-347,-232
120,161,41,-140,40,101,-226,-173,-331,-362,-346,-231
120,164,44,-142,38,104,-225,-172,-330,-361,-345,-231
120,165,45,-142,38,105,-226,-173,-330,-361,-345,-232
118,163,45,-140,37,104,-226,-172,-330,-362,-345,-231
117,161,44,-139,37,103,-227,-173,-332,-363,-346,-232
117,158,41,-137,38,100,-229,-175,-333,-364,-347,-232
117,155,38,-136,40,97,-230,-175,-334,-364,-347,-231
117,154,37,-135,40,96,-229,-175,-334,-364,-347,-231
117,156,39,-136,39,98,-228,-174,-334,-363,-347,-231
118,159,41,-138,39,100,-226,-173,-333,-362,-346,-231
119,162,43,-140,38,103,-226,-172,-331,-362,-345,-231
119,164,45,-141,37,105,-226,-172,-330,-362,-344,-232
120,165,45,-142,38,105,-227,-173,-330,-363,-345,-232
119,164,45,-141,37,105,-227,-173,-331,-362,-346,-232
118,161,43,-139,38,102,-228,-174,-332,-363,-347,-232
117,158,41,-137,38,100,-228,-174,-334,-364,-347,-231
116,155,39,-135,39,97,-229,-175,-335,-365,-348,-231
116,154,38,-135,39,96,-229,-176,-334,-365,-348,-231
117,155,38,-136,40,97,-227,-174,-333,-364,-346,-230
118,157,39,-137,40,98,-225,-172,-331,-362,-344,-230
120,161,41,-140,40,101,-224,-171,-330,-361,-344,-230
121,164,43,-142,39,104,-225,-171,-329,-361,-344,-231
120,165,45,-142,38,105,-225,-171,-329,-361,-344,-231
119,164,45,-141,37,105,-226,-173,-330,-362,-344,-231
118,161,43,-139,38,102,-227,-174,-332,-363,-345,-231
118,158,40,-138,39,99,-228,-175,-333,-364,-346,-231
117,156,39,-136,39,98,-229,-174,-334,-365,-346,-231
117,154,37,-135,40,96,-228,-174,-333,-364,-345,-230
117,155,38,-136,40,97,-227,-173,-332,-363,-344,-230
117,158,41,-137,38,100,-225,-172,-331,-362,-343,-230
119,161,42,-140,39,102,-225,-172,-330,-361,-343,-230
120,163,43,-141,39,103,-224,-171,-329,-360,-343,-230
120,164,44,-142,38,104,-224,-171,-329,-360,-343,-230
119,164,45,-141,37,105,-227,-172,-331,-362,-344,-232
118,161,43,-139,38,102,-228,-173,-332,-363,-345,-232
117,158,41,-137,38,100,-228,-173,-332,-363,-345,-231
116,155,39,-135,39,97,-228,-173,-333,-363,-345,-230
117,154,37,-135,40,96,-228,-173,-333,-363,-345,-229
118,155,37,-136,41,96,-227,-173,-333,-363,-345,-230
119,158,39,-138,40,99,-225,-173,-332,-362,-344,-230
119,161,42,-140,39,102,-224,-172,-330,-361,-343,-230
119,164,45,-141,37,105,-224,-171,-329,-361,-342,-230
119,165,46,-142,37,106,-224,-171,-329,-360,-342,-229
119,164,45,-141,37,105,-226,-172,-330,-361,-343,-230
118,161,43,-139,38,102,-227,-173,-332,-362,-344,-230
117,158,41,-137,38,100,-226,-174,-333,-362,-344,-229
117,156,39,-136,39,98,-227,-175,-334,-364,-345,-230
116,154,38,-135,39,96,-226,-174,-333,-363,-345,-229
117,155,38,-136,40,97,-225,-173,-332,-362,-344,-228
118,158,40,-138,39,99,-225,-173,-331,-361,-344,-229
119,161,42,-140,39,102,-223,-171,-329,-360,-342,-228
120,164,44,-142,38,104,-223,-170,-327,-359,-341,-229
120,166,46,-143,37,106,-225,-171,-329,-359,-342,-230
120,164,44,-142,38,104,-226,-171,-329,-360,-342,-229
119,162,43,-140,38,103,-225,-172,-329,-361,-343,-229
119,160,41,-139,39,101,-226,-173,-331,-362,-344,-229
118,158,40,-138,39,99,-226,-173,-332,-361,-344,-227
118,158,40,-138,39,99,-226,-172,-332,-361,-343,-226
119,161,42,-140,39,102,-225,-171,-330,-360,-341,-226
121,164,43,-142,39,104,-225,-170,-329,-359,-341,-227
122,169,47,-145,38,108,-224,-169,-327,-357,-339,-227
122,173,51,-147,36,112,-222,-168,-324,-355,-337,-226
122,175,53,-148,35,114,-222,-169,-323,-356,-337,-226
122,174,52,-148,35,113,-222,-169,-323,-355,-337,-224
121,173,52,-147,35,113,-223,-170,-323,-356,-338,-224
121,171,50,-146,36,111,-223,-170,-323,-356,-337,-222
120,169,49,-144,36,109,-223,-169,-323,-356,-338,-222
120,169,49,-144,36,109,-222,-169,-324,-356,-338,-222
121,170,49,-145,36,110,-220,-167,-323,-355,-337,-222
121,173,52,-147,35,113,-218,-165,-321,-353,-335,-221
122,177,55,-149,34,116,-216,-163,-319,-352,-335,-222
122,179,57,-150,33,118,-215,-163,-318,-352,-335,-223
121,180,59,-150,31,120,-216,-165,-318,-351,-335,-223
120,179,59,-149,31,119,-219,-168,-319,-353,-336,-223
119,177,58,-148,31,118,-223,-171,-321,-354,-336,-222
118,175,57,-146,31,116,-225,-173,-322,-354,-337,-221
119,173,54,-146,33,114,-227,-174,-323,-354,-337,-220
120,174,54,-147,33,114,-229,-174,-324,-354,-336,-219
121,175,54,-148,34,115,-228,-172,-321,-352,-334,-218
122,178,56,-150,33,117,-229,-172,-319,-351,-333,-218
123,181,58,-152,33,120,-228,-172,-318,-349,-332,-218
125,183,58,-154,34,121,-227,-172,-319,-350,-332,-219
125,182,57,-153,34,120,-228,-174,-320,-352,-332,-220
125,180,55,-152,35,118,-230,-178,-324,-354,-333,-220
123,177,54,-150,35,116,-233,-182,-327,-356,-335,-220
122,173,51,-147,36,112,-234,-182,-329,-356,-335,-220
121,171,50,-146,36,111,-234,-182,-330,-356,-336,-219
121,170,49,-145,36,110,-233,-180,-329,-356,-336,-218
122,171,49,-146,37,110,-231,-176,-327,-355,-334,-217
124,174,50,-149,37,112,-230,-174,-326,-354,-333,-217
125,176,51,-150,37,114,-227,-171,-323,-351,-330,-217
126,177,51,-151,38,114,-227,-171,-322,-351,-330,-217
127,176,49,-151,39,113,-227,-171,-323,-351,-330,-218
127,175,48,-151,40,112,-228,-173,-323,-351,-330,-218
127,172,45,-149,41,109,-229,-174,-325,-352,-331,-217
125,170,45,-147,40,108,-230,-175,-328,-354,-333,-217
123,167,44,-145,40,106,-230,-174,-329,-354,-333,-216
121,164,43,-142,39,104,-229,-174,-329,-355,-333,-217
121,163,42,-142,40,103,-227,-172,-328,-354,-333,-217
122,164,42,-143,40,103,-227,-172,-328,-355,-333,-218
123,165,42,-144,41,104,-227,-171,-327,-355,-333,-219
123,165,42,-144,41,104,-226,-171,-328,-356,-334,-221
122,164,42,-143,40,103,-225,-171,-329,-358,-336,-223
120,161,41,-140,40,101,-224,-171,-330,-360,-338,-225
118,157,39,-137,40,98,-225,-172,-333,-362,-340,-226
117,153,36,-135,41,95,-226,-174,-336,-364,-342,-227
116,151,35,-133,41,93,-227,-175,-337,-365,-343,-227
115,149,34,-132,41,92,-226,-174,-337,-365,-343,-226
116,150,34,-133,41,92,-225,-173,-336,-364,-341,-225
117,154,37,-135,40,96,-225,-173,-335,-363,-341,-226
118,157,39,-137,40,98,-223,-172,-333,-361,-339,-225
119,160,41,-139,39,101,-223,-171,-331,-360,-339,-225
120,162,42,-141,39,102,-223,-172,-331,-360,-338,-226
120,161,41,-140,40,101,-223,-171,-330,-360,-337,-225
119,158,39,-138,40,99,-224,-172,-331,-360,-339,-225
118,155,37,-136,41,96,-226,-173,-334,-362,-340,-225
117,151,34,-134,42,93,-226,-173,-335,-362,-340,-225
116,149,33,-132,42,91,-226,-172,-334,-362,-340,-224
117,150,33,-133,42,92,-226,-172,-334,-362,-340,-225
118,153,35,-135,42,94,-224,-171,-332,-362,-339,-224
119,156,37,-137,41,97,-223,-170,-331,-361,-338,-224
120,158,38,-139,41,98,-223,-170,-331,-360,-338,-224
120,160,40,-140,40,100,-224,-171,-331,-360,-339,-226
120,159,39,-139,41,99,-224,-171,-331,-361,-340,-226
119,157,38,-138,41,98,-224,-173,-332,-362,-340,-226
117,154,37,-135,40,96,-225,-174,-333,-362,-340,-225
116,151,35,-133,41,93,-226,-175,-334,-363,-340,-225
116,150,34,-133,41,92,-226,-173,-334,-362,-340,-224
117,151,34,-134,42,93,-226,-173,-334,-363,-340,-224
117,153,36,-135,41,95,-224,-172,-332,-362,-339,-225
118,155,37,-136,41,96,-222,-171,-331,-360,-337,-225
119,158,39,-138,40,99,-222,-170,-329,-359,-336,-224
120,160,40,-140,40,100,-223,-170,-329,-359,-336,-225
120,159,39,-139,41,99,-224,-171,-330,-361,-338,-225
118,157,39,-137,40,98,-224,-171,-331,-361,-338,-224
117,154,37,-135,40,96,-225,-173,-332,-362,-339,-224
116,151,35,-133,41,93,-226,-173,-333,-362,-339,-224
115,150,35,-132,40,93,-225,-173,-333,-361,-339,-223
116,151,35,-133,41,93,-225,-173,-333,-361,-339,-224
117,154,37,-135,40,96,-224,-172,-331,-360,-337,-224
118,157,39,-137,40,98,-223,-171,-330,-359,-336,-224
119,159,40,-139,40,100,-223,-170,-329,-358,-336,-224
119,160,41,-139,39,101,-223,-171,-328,-358,-337,-224
119,160,41,-139,39,101,-224,-171,-328,-359,-337,-224
118,158,40,-138,39,99,-225,-172,-330,-360,-336,-224
117,155,38,-136,40,97,-225,-172,-330,-360,-337,-223
116,152,36,-134,40,94,-224,-172,-331,-360,-338,-224
115,152,37,-133,39,95,-222,-171,-330,-361,-340,-225
114,152,38,-133,38,95,-218,-166,-326,-361,-340,-225
112,151,39,-131,37,95,-210,-159,-319,-360,-341,-228
111,150,39,-130,36,95,-201,-147,-309,-359,-346,-233
112,148,36,-130,38,92,-191,-129,-295,-358,-350,-238
114,144,30,-129,42,87,-182,-112,-281,-356,-355,-245
115,139,24,-127,46,82,-173,-97,-266,-352,-356,-248
116,137,21,-126,48,79,-168,-89,-257,-349,-358,-248
117,135,18,-126,50,77,-166,-84,-255,-347,-357,-246
119,138,19,-128,50,79,-166,-81,-253,-342,-352,-241
124,145,21,-134,52,83,-170,-80,-246,-331,-342,-231
133,158,25,-145,54,92,-176,-79,-232,-311,-326,-220
144,175,31,-159,57,103,-182,-77,-210,-282,-303,-203
157,197,40,-177,59,119,-191,-78,-186,-250,-278,-185
168,223,55,-195,57,139,-200,-84,-160,-213,-249,-165
178,252,74,-215,52,163,-216,-105,-149,-174,-216,-141
183,286,103,-234,40,195,-240,-144,-166,-137,-179,-110
185,322,137,-253,24,230,-269,-193,-213,-106,-143,-78
186,356,170,-271,8,263,-298,-245,-275,-75,-105,-45
191,389,198,-290,-3,294,-331,-294,-337,-34,-65,-15
199,415,216,-307,-8,316,-359,-333,-382,26,-20,15
208,433,225,-320,-8,329,-384,-366,-410,97,27,43
215,443,228,-329,-6,336,-407,-394,-433,157,68,66
213,445,232,-329,-9,339,-422,-413,-471,176,89,78
201,433,232,-317,-15,333,-420,-413,-523,138,78,73
184,410,226,-297,-21,318,-408,-398,-571,60,45,53
167,388,221,-277,-27,305,-394,-384,-606,-36,0,30
151,368,217,-259,-33,293,-381,-374,-627,-143,-52,4
137,340,203,-238,-33,272,-369,-356,-632,-250,-110,-25
127,307,180,-217,-26,244,-356,-330,-627,-347,-167,-56
121,274,153,-197,-16,214,-344,-303,-615,-418,-216,-87
118,245,127,-181,-4,186,-329,-278,-595,-448,-253,-114
114,222,108,-168,3,165,-311,-253,-568,-446,-279,-138
111,202,91,-156,10,147,-292,-229,-543,-437,-301,-163
107,184,77,-145,15,131,-273,-209,-520,-433,-321,-186
106,170,64,-138,21,117,-259,-196,-502,-429,-331,-200
104,163,59,-133,23,111,-253,-193,-490,-424,-335,-207
102,155,53,-128,25,104,-250,-194,-477,-421,-339,-212
99,146,47,-122,26,97,-247,-193,-461,-418,-343,-218
100,138,38,-119,31,88,-244,-190,-445,-413,-346,-222
101,134,33,-117,34,84,-239,-186,-427,-405,-345,-223
103,135,32,-119,36,84,-233,-182,-407,-396,-343,-223
107,141,34,-124,37,88,-229,-179,-388,-386,-338,-221
110,151,41,-130,35,96,-229,-178,-373,-377,-334,-220
112,160,48,-136,32,104,-227,-176,-360,-368,-330,-217
114,165,51,-139,32,108,-225,-178,-351,-363,-329,-218
115,166,51,-140,32,109,-223,-176,-342,-358,-327,-216
116,166,50,-141,33,108,-224,-175,-338,-357,-327,-215
116,163,47,-139,35,105,-223,-172,-333,-356,-327,-215
115,160,45,-137,35,103,-220,-167,-328,-355,-327,-214
114,157,43,-135,36,100,-219,-165,-324,-356,-328,-214
114,157,43,-135,36,100,-218,-164,-321,-356,-329,-215
114,157,43,-135,36,100,-216,-162,-318,-354,-328,-216
115,160,45,-137,35,103,-215,-160,-315,-352,-328,-217
117,164,47,-140,35,106,-214,-160,-314,-351,-328,-218
117,166,49,-141,34,108,-214,-160,-313,-350,-328,-218
118,166,48,-142,35,107,-216,-160,-313,-349,-328,-218
117,164,47,-140,35,106,-217,-161,-312,-350,-328,-217
116,161,45,-138,36,103,-218,-162,-312,-351,-329,-217
115,157,42,-136,37,100,-217,-162,-311,-351,-329,-216
115,154,39,-134,38,97,-216,-162,-309,-351,-329,-216
115,154,39,-134,38,97,-215,-161,-307,-351,-329,-216
116,157,41,-136,38,99,-216,-161,-306,-351,-329,-218
117,160,43,-138,37,102,-214,-161,-304,-349,-328,-219
118,163,45,-140,37,104,-213,-159,-303,-347,-327,-219
118,165,47,-141,36,106,-213,-159,-303,-345,-327,-219
119,166,47,-142,36,107,-216,-160,-304,-345,-327,-219
118,164,46,-141,36,105,-217,-161,-305,-346,-326,-218
117,161,44,-139,37,103,-217,-161,-304,-346,-327,-216
117,158,41,-137,38,100,-217,-162,-304,-347,-328,-216
117,155,38,-136,40,97,-216,-161,-303,-347,-327,-215
117,155,38,-136,40,97,-215,-161,-301,-347,-326,-216
117,157,40,-137,39,99,-215,-160,-300,-346,-326,-216
118,160,42,-139,38,101,-214,-159,-298,-344,-325,-216
119,163,44,-141,38,104,-214,-159,-298,-343,-325,-217
119,166,47,-142,36,107,-214,-158,-298,-343,-325,-217
119,166,47,-142,36,107,-216,-159,-299,-343,-325,-217
119,164,45,-141,37,105,-217,-160,-300,-344,-325,-216
118,161,43,-139,38,102,-218,-161,-300,-345,-325,-215
117,158,41,-137,38,100,-216,-160,-299,-345,-324,-214
117,155,38,-136,40,97,-215,-160,-299,-345,-324,-213
117,155,38,-136,40,97,-214,-159,-297,-346,-324,-213
118,158,40,-138,39,99,-214,-159,-297,-345,-324,-214
119,161,42,-140,39,102,-213,-157,-295,-342,-323,-214
120,165,45,-142,38,105,-213,-157,-295,-341,-323,-215
120,167,47,-143,37,107,-213,-157,-294,-339,-322,-215
120,167,47,-143,37,107,-214,-157,-294,-339,-321,-214
119,165,46,-142,37,106,-215,-157,-295,-340,-321,-213
118,162,44,-140,37,103,-216,-158,-295,-341,-322,-213
118,159,41,-138,39,100,-217,-159,-295,-342,-322,-213
118,158,40,-138,39,99,-216,-159,-295,-343,-323,-213
118,158,40,-138,39,99,-215,-159,-294,-343,-322,-212
"
		119","
		159","
		40","
		-139","
		40","
		100","
		-213","
		-157","
		-292","
		-340","
		-321","
		-212"
120,162,42,-141,39,102,-213,-157,-291,-338,-320,-213
120,166,46,-143,37,106,-212,-156,-289,-336,-319,-213
120,168,48,-144,36,108,-212,-156,-288,-335,-319,-213
120,168,48,-144,36,108,-214,-156,-290,-335,-318,-212
120,166,46,-143,37,106,-215,-156,-291,-335,-318,-211
120,164,44,-142,38,104,-216,-157,-291,-336,-318,-211
118,161,43,-139,38,102,-216,-158,-290,-336,-319,-211
117,159,42,-138,38,101,-215,-157,-289,-336,-318,-209
118,159,41,-138,39,100,-214,-157,-288,-335,-318,-209
119,161,42,-140,39,102,-213,-156,-287,-334,-318,-210
120,164,44,-142,38,104,-212,-154,-285,-331,-316,-209
121,167,46,-144,38,107,-212,-155,-284,-330,-316,-210
121,170,49,-145,36,110,-212,-155,-283,-329,-315,-211
121,170,49,-145,36,110,-214,-154,-283,-328,-314,-210
120,169,49,-144,36,109,-214,-154,-283,-328,-314,-209
119,166,47,-142,36,107,-215,-156,-284,-328,-314,-208
119,164,45,-141,37,105,-215,-156,-283,-329,-315,-208
119,161,42,-140,39,102,-214,-155,-282,-328,-314,-207
119,160,41,-139,39,101,-213,-155,-280,-328,-313,-206
120,163,43,-141,39,103,-213,-154,-279,-326,-313,-207
121,166,45,-143,38,106,-212,-153,-276,-324,-311,-206
122,170,48,-146,37,109,-212,-153,-275,-323,-311,-207
123,173,50,-148,37,112,-211,-152,-274,-321,-309,-207
124,174,50,-149,37,112,-213,-152,-275,-319,-309,-207
124,172,48,-148,38,110,-213,-152,-275,-318,-308,-206
123,169,46,-146,39,108,-214,-153,-275,-319,-309,-205
121,166,45,-143,38,106,-213,-152,-274,-319,-308,-204
121,164,43,-142,39,104,-214,-153,-274,-320,-308,-203
121,164,43,-142,39,104,-212,-152,-272,-319,-307,-202
122,167,45,-144,39,106,-211,-150,-269,-317,-306,-202
123,171,48,-147,38,110,-211,-149,-268,-316,-305,-203
124,174,50,-149,37,112,-210,-147,-265,-313,-304,-203
124,177,53,-150,36,115,-211,-147,-264,-311,-303,-203
125,178,53,-151,36,116,-212,-148,-265,-310,-302,-203
124,176,52,-150,36,114,-213,-148,-265,-310,-302,-203
122,173,51,-147,36,112,-213,-148,-264,-309,-302,-202
122,171,49,-146,37,110,-212,-148,-263,-308,-301,-201
123,169,46,-146,39,108,-212,-148,-262,-308,-301,-200
123,169,46,-146,39,108,-211,-146,-258,-307,-300,-199
124,172,48,-148,38,110,-210,-145,-255,-304,-298,-198
126,176,50,-151,38,113,-209,-144,-254,-301,-296,-199
127,179,52,-153,38,116,-209,-143,-252,-299,-295,-199
128,182,54,-155,37,118,-210,-142,-250,-297,-294,-199
128,183,55,-155,37,119,-210,-141,-250,-294,-293,-198
127,181,54,-154,37,118,-211,-141,-249,-293,-292,-197
127,179,52,-153,38,116,-213,-142,-249,-293,-292,-197
126,176,50,-151,38,113,-212,-141,-246,-291,-290,-194
126,174,48,-150,39,111,-211,-141,-244,-290,-290,-193
127,175,48,-151,40,112,-209,-138,-241,-288,-289,-192
128,177,49,-152,40,113,-208,-136,-237,-285,-287,-191
129,181,52,-155,39,117,-207,-135,-234,-281,-285,-191
130,186,56,-158,37,121,-207,-134,-232,-278,-283,-191
131,190,59,-160,36,125,-208,-133,-231,-275,-282,-191
132,191,59,-161,37,125,-208,-131,-228,-271,-280,-190
132,190,58,-161,37,124,-209,-131,-226,-270,-279,-189
132,188,56,-160,38,122,-209,-130,-224,-269,-278,-187
132,186,54,-159,39,120,-210,-131,-223,-267,-277,-186
132,185,53,-158,40,119,-209,-130,-219,-264,-275,-184
133,185,52,-159,41,119,-209,-129,-216,-262,-273,-183
133,189,56,-161,39,123,-208,-126,-211,-257,-271,-182
134,193,59,-163,38,126,-207,-125,-207,-253,-268,-181
136,197,61,-166,38,129,-207,-123,-204,-248,-266,-180
138,201,63,-169,38,132,-206,-122,-201,-243,-263,-179
139,203,64,-171,38,134,-206,-120,-199,-238,-261,-178
140,203,63,-171,39,133,-208,-120,-196,-236,-259,-176
139,202,63,-170,38,133,-208,-119,-192,-232,-256,-174
139,201,62,-170,39,132,-209,-118,-190,-229,-254,-172
140,200,60,-170,40,130,-209,-117,-187,-225,-251,-170
141,202,61,-171,40,132,-208,-115,-183,-220,-248,-168
143,206,63,-174,40,135,-207,-114,-177,-214,-245,-167
145,211,66,-178,40,139,-206,-112,-172,-208,-241,-165
147,216,69,-181,39,143,-206,-112,-169,-203,-238,-164
148,220,72,-184,38,146,-206,-110,-165,-196,-233,-161
149,223,74,-186,38,149,-208,-111,-162,-190,-231,-159
150,223,73,-186,39,148,-209,-110,-159,-185,-228,-157
150,222,72,-186,39,147,-211,-110,-157,-181,-225,-155
150,221,71,-185,40,146,-211,-109,-153,-176,-221,-152
151,220,69,-185,41,145,-212,-108,-149,-171,-218,-149
152,222,70,-187,41,146,-212,-106,-145,-165,-214,-146
154,227,73,-190,41,150,-212,-106,-142,-160,-211,-146
156,232,76,-194,40,154,-211,-105,-137,-153,-207,-143
158,237,79,-197,40,158,-210,-104,-132,-146,-203,-141
160,242,82,-201,39,162,-211,-104,-130,-141,-200,-141
160,245,85,-202,38,165,-213,-104,-128,-136,-197,-139
160,244,84,-202,38,164,-214,-103,-126,-132,-194,-136
160,243,83,-201,39,163,-216,-104,-125,-129,-191,-134
161,242,81,-201,40,162,-218,-105,-123,-125,-189,-132
163,241,78,-202,43,160,-218,-105,-120,-121,-186,-130
164,242,78,-203,43,160,-218,-104,-118,-117,-183,-128
165,246,81,-205,42,164,-218,-105,-115,-113,-181,-127
166,251,85,-208,41,168,-218,-105,-113,-109,-179,-126
166,255,89,-210,39,172,-217,-104,-110,-104,-176,-124
167,259,92,-213,38,176,-218,-105,-109,-100,-174,-123
168,261,93,-214,38,177,-221,-107,-110,-97,-171,-122
169,260,91,-214,39,176,-223,-109,-112,-96,-171,-121
168,257,89,-212,40,173,-224,-111,-112,-95,-170,-119
167,254,87,-210,40,171,-226,-113,-114,-96,-170,-118
167,252,85,-209,41,169,-226,-115,-116,-96,-169,-117
168,253,85,-210,42,169,-227,-116,-117,-97,-170,-118
167,255,88,-211,40,172,-226,-116,-116,-97,-169,-117
167,257,90,-212,39,174,-226,-117,-118,-98,-170,-118
167,259,92,-213,38,176,-227,-119,-121,-101,-172,-120
167,260,93,-213,37,177,-228,-121,-124,-104,-173,-121
167,259,92,-213,38,176,-229,-123,-129,-109,-176,-123
165,255,90,-210,38,173,-231,-126,-135,-115,-180,-125
163,249,86,-206,39,168,-232,-128,-140,-122,-184,-127
160,243,83,-201,39,163,-232,-129,-146,-129,-188,-128
158,238,80,-198,39,159,-232,-131,-151,-137,-193,-130
157,235,78,-196,40,157,-231,-131,-156,-145,-197,-132
155,234,79,-194,38,157,-229,-132,-160,-152,-201,-135
154,233,79,-193,38,156,-227,-133,-165,-159,-206,-139
155,233,78,-194,39,156,-228,-134,-172,-167,-210,-142
153,232,79,-192,37,156,-228,-135,-179,-175,-215,-146
151,229,78,-190,37,154,-228,-137,-186,-185,-220,-149
148,223,75,-185,37,149,-229,-139,-194,-194,-226,-152
145,216,71,-180,37,144,-229,-141,-201,-204,-232,-156
143,209,66,-176,39,138,-228,-142,-208,-213,-238,-158
141,204,63,-172,39,134,-227,-144,-215,-222,-244,-161
139,200,61,-169,39,131,-226,-144,-220,-230,-249,-165
137,199,62,-168,38,131,-224,-145,-225,-238,-253,-169
136,198,62,-167,37,130,-223,-144,-229,-244,-256,-172
135,197,62,-166,37,130,-221,-144,-234,-250,-259,-175
134,196,62,-165,36,129,-221,-145,-239,-256,-264,-178
133,193,60,-163,37,127,-220,-146,-244,-261,-268,-179
131,189,58,-160,37,124,-221,-148,-251,-269,-273,-183
129,183,54,-156,38,119,-222,-150,-257,-277,-278,-186
127,176,49,-151,39,113,-222,-151,-261,-282,-281,-187
126,172,46,-149,40,109,-221,-151,-265,-287,-284,-189
125,169,44,-147,41,107,-220,-152,-269,-292,-287,-191
123,168,45,-145,39,107,-218,-151,-271,-295,-289,-193
122,169,47,-145,38,108,-216,-150,-272,-298,-290,-195
122,170,48,-146,37,109,-215,-149,-274,-299,-291,-196
122,171,49,-146,37,110,-214,-149,-277,-301,-292,-197
122,169,47,-145,38,108,-216,-151,-281,-305,-295,-199
121,166,45,-143,38,106,-217,-151,-284,-308,-297,-200
120,162,42,-141,39,102,-218,-153,-287,-313,-300,-202
118,158,40,-138,39,99,-218,-154,-290,-316,-302,-202
117,154,37,-135,40,96,-216,-154,-291,-318,-303,-202
116,152,36,-134,40,94,-215,-153,-291,-320,-304,-203
116,153,37,-134,40,95,-213,-152,-291,-319,-304,-203
117,155,38,-136,40,97,-212,-151,-292,-320,-305,-205
117,157,40,-137,39,99,-212,-151,-293,-321,-305,-206
117,158,41,-137,38,100,-211,-150,-293,-321,-305,-206
117,159,42,-138,38,101,-213,-151,-295,-323,-307,-207
116,157,41,-136,38,99,-214,-152,-298,-324,-308,-207
114,153,39,-133,38,96,-215,-153,-299,-326,-309,-207
114,150,36,-132,39,93,-215,-155,-301,-328,-310,-208
114,147,33,-130,41,90,-215,-155,-302,-329,-311,-207
114,145,31,-129,42,88,-213,-153,-300,-328,-310,-206
114,147,33,-130,41,90,-212,-153,-300,-328,-311,-207
114,149,35,-131,40,92,-209,-151,-298,-327,-309,-207
115,153,38,-134,39,96,-210,-151,-299,-328,-310,-209
115,156,41,-135,37,99,-211,-151,-299,-329,-310,-209
115,155,40,-135,38,98,-211,-151,-301,-329,-311,-209
114,154,40,-134,37,97,-212,-152,-302,-330,-311,-209
113,151,38,-132,38,95,-213,-153,-304,-331,-312,-209
112,148,36,-130,38,92,-213,-153,-304,-332,-313,-209
112,145,33,-128,40,89,-212,-154,-304,-333,-313,-208
111,145,34,-128,39,90,-212,-154,-303,-334,-313,-208
112,147,35,-129,39,91,-211,-153,-303,-334,-313,-209
112,149,37,-130,38,93,-210,-151,-301,-332,-312,-209
113,152,39,-132,37,96,-209,-150,-300,-332,-311,-209
113,155,42,-134,36,99,-209,-151,-300,-332,-311,-210
113,155,42,-134,36,99,-209,-151,-300,-331,-311,-209
113,154,41,-133,36,98,-211,-152,-302,-333,-311,-209
112,151,39,-131,37,95,-212,-152,-302,-333,-312,-208
111,148,37,-129,37,93,-213,-153,-303,-334,-314,-208
110,147,37,-128,37,92,-212,-152,-303,-334,-312,-207
115,151,36,-133,40,94,-210,-150,-300,-333,-311,-205
128,164,36,-146,46,100,-205,-146,-295,-330,-308,-202
139,177,38,-158,51,108,-202,-142,-291,-325,-304,-199
134,175,41,-154,47,108,-203,-143,-293,-326,-304,-201
117,159,42,-138,38,101,-208,-149,-298,-331,-310,-207
108,151,43,-129,33,97,-211,-152,-301,-334,-313,-210
116,158,42,-137,37,100,-210,-150,-299,-332,-310,-206
129,168,39,-148,45,104,-207,-146,-295,-329,-306,-201
129,167,38,-148,46,103,-206,-145,-295,-328,-306,-200
115,152,37,-133,39,95,-212,-151,-301,-334,-311,-205
104,141,37,-122,34,89,-215,-154,-303,-337,-314,-208
103,143,40,-123,32,92,-214,-154,-302,-337,-314,-209
107,148,41,-127,33,95,-212,-153,-301,-336,-313,-208
109,151,42,-130,34,97,-211,-151,-299,-334,-311,-208
110,154,44,-132,33,99,-212,-152,-299,-334,-311,-209
111,156,45,-133,33,101,-212,-151,-299,-333,-311,-208
111,155,44,-133,34,100,-212,-151,-299,-333,-310,-206
110,153,43,-131,34,98,-213,-152,-300,-334,-311,-205
110,151,41,-130,35,96,-214,-154,-301,-336,-312,-206
111,150,39,-130,36,95,-215,-154,-301,-337,-312,-206
111,149,38,-130,37,94,-213,-153,-300,-336,-311,-204
111,151,40,-131,36,96,-212,-152,-299,-336,-310,-204
112,154,42,-133,35,98,-210,-151,-298,-334,-310,-204
113,158,45,-135,34,102,-210,-150,-297,-334,-309,-205
115,161,46,-138,35,104,-212,-150,-297,-334,-309,-205
116,162,46,-139,35,104,-213,-150,-297,-334,-308,-205
115,160,45,-137,35,103,-214,-151,-299,-335,-309,-204
114,157,43,-135,36,100,-215,-153,-301,-337,-310,-204
113,154,41,-133,36,98,-215,-154,-301,-338,-310,-204
113,152,39,-132,37,96,-214,-153,-301,-338,-310,-203
113,151,38,-132,38,95,-213,-153,-301,-338,-310,-204
113,153,40,-133,37,97,-211,-151,-300,-337,-309,-203
114,156,42,-135,36,99,-212,-152,-300,-337,-309,-204
115,159,44,-137,36,102,-211,-151,-299,-336,-308,-204
115,162,47,-138,34,105,-212,-150,-298,-335,-307,-204
115,162,47,-138,34,105,-214,-151,-299,-334,-308,-204
114,160,46,-137,34,103,-214,-151,-300,-335,-308,-203
114,157,43,-135,36,100,-214,-152,-301,-337,-308,-203
114,154,40,-134,37,97,-214,-154,-302,-338,-309,-203
113,151,38,-132,38,95,-214,-154,-303,-339,-309,-203
113,150,37,-131,38,94,-213,-153,-301,-339,-308,-202
113,153,40,-133,37,97,-212,-152,-301,-338,-308,-202
114,156,42,-135,36,99,-212,-152,-301,-338,-309,-204
114,158,44,-136,35,101,-211,-150,-300,-336,-307,-203
115,160,45,-137,35,103,-211,-150,-300,-336,-307,-204
114,160,46,-137,34,103,-211,-151,-300,-335,-307,-204
114,159,45,-136,35,102,-213,-152,-302,-336,-309,-205
114,156,42,-135,36,99,-214,-154,-304,-338,-310,-205
114,153,39,-133,38,96,-215,-155,-305,-340,-311,-205
113,150,37,-131,38,94,-214,-155,-304,-339,-310,-203
113,150,37,-131,38,94,-214,-155,-304,-340,-311,-204
113,151,38,-132,38,95,-213,-154,-304,-340,-311,-205
114,154,40,-134,37,97,-212,-153,-303,-339,-310,-205
114,157,43,-135,36,100,-211,-152,-303,-338,-309,-206
115,159,44,-137,36,102,-211,-152,-303,-338,-309,-206
115,159,44,-137,36,102,-212,-152,-304,-339,-309,-206
115,157,42,-136,37,100,-213,-154,-305,-339,-310,-206
114,154,40,-134,37,97,-214,-155,-307,-341,-312,-206
113,150,37,-131,38,94,-214,-155,-307,-341,-312,-206
113,148,35,-130,39,92,-215,-156,-309,-343,-313,-206
112,147,35,-129,39,91,-214,-155,-308,-343,-313,-206
112,147,35,-129,39,91,-212,-154,-307,-342,-312,-206
113,150,37,-131,38,94,-212,-154,-306,-341,-311,-206
114,153,39,-133,38,96,-212,-154,-307,-341,-312,-207
114,156,42,-135,36,99,-211,-153,-306,-340,-312,-207
114,156,42,-135,36,99,-212,-154,-308,-341,-312,-208
114,154,40,-134,37,97,-214,-155,-309,-341,-313,-208
113,151,38,-132,38,95,-215,-156,-310,-343,-314,-208
112,147,35,-129,39,91,-215,-157,-311,-343,-314,-208
111,145,34,-128,39,90,-214,-157,-312,-344,-315,-208
111,144,33,-127,39,89,-214,-157,-312,-345,-315,-208
111,145,34,-128,39,90,-213,-156,-311,-344,-314,-208
111,147,36,-129,38,92,-211,-155,-310,-343,-313,-208
112,150,38,-131,37,94,-210,-154,-309,-341,-312,-208
113,152,39,-132,37,96,-210,-154,-309,-341,-312,-208
113,153,40,-133,37,97,-211,-154,-310,-342,-313,-209
113,152,39,-132,37,96,-213,-156,-312,-344,-315,-210
112,149,37,-130,38,93,-215,-157,-313,-346,-316,-210
111,146,35,-128,38,91,-214,-157,-314,-347,-316,-209
110,142,32,-126,39,87,-214,-158,-316,-348,-316,-209
110,142,32,-126,39,87,-213,-158,-315,-347,-316,-209
111,144,33,-127,39,89,-213,-158,-314,-347,-316,-209
111,146,35,-128,38,91,-211,-155,-312,-345,-315,-209
112,149,37,-130,38,93,-211,-155,-313,-346,-315,-210
112,151,39,-131,37,95,-210,-154,-311,-345,-314,-209
112,151,39,-131,37,95,-211,-154,-312,-345,-315,-209
112,150,38,-131,37,94,-212,-155,-314,-347,-316,-210
111,147,36,-129,38,92,-213,-157,-316,-348,-317,-210
111,144,33,-127,39,89,-215,-158,-317,-349,-318,-211
110,141,31,-125,40,86,-215,-157,-316,-348,-317,-209
110,140,30,-125,40,85,-214,-156,-316,-349,-317,-210
110,141,31,-125,40,86,-212,-155,-315,-348,-317,-210
110,143,33,-126,39,88,-210,-154,-314,-347,-316,-210
111,147,36,-129,38,92,-210,-154,-314,-347,-316,-211
111,150,39,-130,36,95,-210,-155,-314,-347,-316,-211
111,151,40,-131,36,96,-211,-155,-313,-346,-316,-211
111,149,38,-130,37,94,-212,-156,-315,-347,-317,-211
111,146,35,-128,38,91,-214,-157,-317,-349,-318,-211
110,143,33,-126,39,88,-214,-158,-318,-351,-320,-212
110,140,30,-125,40,85,-214,-158,-319,-352,-320,-211
110,139,29,-124,41,84,-214,-158,-319,-352,-320,-211
110,140,30,-125,40,85,-212,-157,-318,-350,-318,-211
110,143,33,-126,39,88,-211,-156,-316,-349,-318,-211
111,146,35,-128,38,91,-210,-155,-315,-349,-317,-212
111,148,37,-129,37,93,-210,-155,-314,-348,-317,-212
111,148,37,-129,37,93,-209,-155,-314,-347,-316,-211
110,147,37,-128,37,92,-211,-155,-315,-347,-316,-211
110,144,34,-127,38,89,-212,-157,-317,-349,-318,-211
109,141,32,-125,39,87,-213,-158,-318,-350,-319,-211
108,138,30,-123,39,84,-213,-158,-319,-351,-320,-211
109,138,29,-123,40,84,-213,-158,-319,-352,-320,-211
109,138,29,-123,40,84,-211,-157,-317,-351,-319,-211
109,141,32,-125,39,87,-210,-155,-315,-350,-318,-212
111,145,34,-128,39,90,-209,-155,-314,-349,-318,-212
112,148,36,-130,38,92,-209,-154,-314,-348,-318,-212
112,147,35,-129,39,91,-210,-155,-315,-347,-317,-211
111,145,34,-128,39,90,-211,-156,-316,-349,-318,-212
110,143,33,-126,39,88,-213,-157,-317,-350,-319,-212
110,140,30,-125,40,85,-213,-158,-319,-351,-320,-212
109,137,28,-123,41,83,-213,-159,-319,-352,-320,-212
109,137,28,-123,41,83,-212,-158,-319,-353,-321,-212
109,138,29,-123,40,84,-211,-157,-317,-351,-320,-211
111,141,30,-126,41,86,-211,-156,-317,-351,-319,-212
112,144,32,-128,40,88,-210,-155,-316,-349,-317,-212
113,147,34,-130,40,91,-210,-155,-315,-349,-318,-212
112,146,34,-129,39,90,-212,-156,-316,-349,-318,-213
111,144,33,-127,39,89,-213,-157,-317,-350,-318,-213
111,142,31,-126,40,87,-214,-158,-318,-351,-320,-213
110,139,29,-124,41,84,-214,-159,-319,-352,-321,-212
109,136,27,-122,41,82,-212,-158,-319,-352,-320,-211
109,136,27,-122,41,82,-211,-158,-319,-352,-320,-211
"
		110","
		137","
		27","
		-123","
		42","
		82","
		-211","
		-157","
		-319","
		-351","
		-320","
		-212"
110,140,30,-125,40,85,-209,-156,-318,-350,-319,-212
111,143,32,-127,40,88,-208,-155,-316,-349,-318,-212
112,145,33,-128,40,89,-209,-154,-315,-348,-318,-213
112,145,33,-128,40,89,-209,-155,-316,-348,-318,-213
112,144,32,-128,40,88,-212,-157,-317,-349,-319,-214
111,141,30,-126,41,86,-213,-158,-319,-351,-320,-214
110,138,28,-124,41,83,-213,-158,-319,-351,-320,-212
109,136,27,-122,41,82,-212,-158,-320,-352,-321,-212
109,134,25,-121,42,80,-211,-158,-319,-352,-321,-212
110,136,26,-123,42,81,-211,-157,-319,-351,-320,-213
111,139,28,-125,42,84,-210,-156,-317,-350,-319,-212
112,142,30,-127,41,86,-209,-155,-316,-349,-317,-212
112,145,33,-128,40,89,-209,-155,-315,-349,-317,-213
112,146,34,-129,39,90,-211,-157,-317,-350,-318,-214
112,144,32,-128,40,88,-211,-157,-318,-350,-318,-213
111,141,30,-126,41,86,-212,-158,-319,-351,-320,-213
110,138,28,-124,41,83,-212,-159,-319,-352,-320,-213
109,136,27,-122,41,82,-212,-160,-320,-353,-321,-212
110,134,24,-122,43,79,-212,-159,-320,-353,-321,-212
111,135,24,-123,44,80,-211,-158,-320,-352,-321,-212
111,138,27,-124,42,83,-210,-157,-319,-351,-320,-213
111,141,30,-126,41,86,-209,-157,-317,-350,-319,-214
111,143,32,-127,40,88,-208,-155,-315,-348,-318,-212
112,145,33,-128,40,89,-209,-156,-317,-349,-318,-212
111,143,32,-127,40,88,-210,-157,-317,-349,-318,-213
111,141,30,-126,41,86,-212,-159,-319,-351,-321,-214
110,138,28,-124,41,83,-212,-159,-320,-352,-321,-213
110,135,25,-122,43,80,-212,-159,-321,-352,-320,-212
110,134,24,-122,43,79,-211,-159,-320,-353,-320,-212
110,136,26,-123,42,81,-211,-158,-319,-353,-321,-213
111,139,28,-125,42,84,-210,-157,-318,-351,-319,-212
111,142,31,-126,40,87,-209,-156,-317,-350,-318,-212
112,144,32,-128,40,88,-209,-156,-317,-350,-318,-212
113,144,31,-128,41,88,-210,-155,-316,-349,-318,-212
113,143,30,-128,42,87,-212,-157,-318,-350,-319,-213
112,141,29,-126,42,85,-213,-159,-319,-352,-320,-213
110,138,28,-124,41,83,-212,-159,-319,-352,-320,-212
110,135,25,-122,43,80,-212,-159,-320,-352,-320,-212
110,134,24,-122,43,79,-212,-159,-320,-352,-320,-211
111,136,25,-123,43,81,-211,-158,-319,-352,-320,-212
112,139,27,-125,43,83,-209,-157,-318,-350,-319,-212
113,142,29,-127,42,86,-209,-156,-317,-350,-319,-213
113,144,31,-128,41,88,-208,-155,-316,-349,-317,-213
113,145,32,-129,41,89,-209,-156,-317,-350,-319,-214
113,143,30,-128,42,87,-211,-157,-318,-350,-320,-214
112,140,28,-126,42,84,-212,-158,-319,-352,-320,-214
111,137,26,-124,43,82,-212,-158,-319,-352,-320,-213
110,135,25,-122,43,80,-212,-158,-320,-353,-321,-213
110,134,24,-122,43,79,-212,-158,-321,-354,-321,-213
110,135,25,-122,43,80,-210,-157,-319,-352,-320,-212
112,138,26,-125,43,82,-210,-157,-318,-351,-320,-213
113,141,28,-127,43,85,-210,-156,-317,-351,-319,-213
113,143,30,-128,42,87,-209,-157,-317,-350,-319,-213
113,143,30,-128,42,87,-208,-157,-316,-349,-319,-213
113,142,29,-127,42,86,-210,-157,-318,-350,-319,-213
113,140,27,-126,43,84,-211,-158,-319,-352,-320,-212
112,137,25,-124,44,81,-212,-159,-320,-353,-321,-212
111,134,23,-122,44,79,-211,-158,-320,-353,-320,-211
111,134,23,-122,44,79,-211,-158,-320,-353,-320,-212
111,135,24,-123,44,80,-211,-157,-320,-353,-320,-212
112,138,26,-125,43,82,-210,-156,-319,-351,-319,-213
113,140,27,-126,43,84,-209,-155,-317,-350,-319,-213
113,143,30,-128,42,87,-208,-155,-316,-349,-319,-213
114,144,30,-129,42,87,-209,-156,-317,-350,-319,-214
113,142,29,-127,42,86,-210,-156,-318,-350,-320,-214
113,140,27,-126,43,84,-211,-157,-319,-351,-321,-214
112,137,25,-124,44,81,-212,-159,-321,-352,-321,-214
112,135,23,-123,45,79,-212,-159,-321,-353,-321,-213
112,133,21,-122,46,77,-211,-158,-319,-352,-320,-211
113,135,22,-124,46,79,-210,-157,-318,-352,-320,-211
113,138,25,-125,44,82,-209,-156,-317,-350,-319,-211
114,141,27,-127,44,84,-209,-155,-317,-350,-319,-213
114,143,29,-128,43,86,-208,-154,-315,-349,-318,-212
114,144,30,-129,42,87,-209,-156,-317,-350,-319,-214
114,142,28,-128,43,85,-210,-157,-318,-351,-320,-214
113,139,26,-126,44,83,-211,-159,-320,-352,-320,-214
112,136,24,-124,44,80,-211,-159,-320,-352,-320,-213
111,133,22,-122,45,78,-211,-159,-321,-353,-320,-212
111,132,21,-121,45,77,-210,-159,-320,-353,-321,-212
112,134,22,-123,45,78,-209,-158,-320,-352,-320,-213
113,137,24,-125,45,81,-208,-156,-318,-351,-319,-212
114,140,26,-127,44,83,-207,-154,-316,-350,-317,-212
115,143,28,-129,44,86,-208,-155,-316,-350,-319,-213
115,143,28,-129,44,86,-209,-156,-317,-350,-319,-214
114,142,28,-128,43,85,-209,-156,-317,-350,-319,-213
113,140,27,-126,43,84,-211,-157,-319,-351,-320,-212
112,137,25,-124,44,81,-212,-159,-321,-353,-321,-213
111,134,23,-122,44,79,-211,-158,-321,-353,-320,-212
111,134,23,-122,44,79,-210,-158,-320,-352,-320,-212
112,134,22,-123,45,78,-210,-157,-319,-352,-319,-212
113,137,24,-125,45,81,-209,-156,-318,-351,-318,-212
114,140,26,-127,44,83,-208,-155,-316,-350,-317,-212
114,142,28,-128,43,85,-207,-154,-315,-349,-317,-212
114,143,29,-128,43,86,-208,-154,-315,-349,-317,-212
114,142,28,-128,43,85,-210,-156,-317,-351,-319,-213
113,140,27,-126,43,84,-211,-157,-319,-352,-320,-213
112,137,25,-124,44,81,-212,-159,-321,-353,-321,-213
111,134,23,-122,44,79,-211,-158,-320,-353,-320,-211
111,133,22,-122,45,78,-211,-158,-320,-353,-321,-211
112,134,22,-123,45,78,-210,-158,-320,-352,-320,-211
113,137,24,-125,45,81,-209,-157,-318,-351,-318,-212
113,140,27,-126,43,84,-208,-155,-317,-351,-318,-212
113,142,29,-127,42,86,-208,-155,-316,-350,-317,-213
114,143,29,-128,43,86,-208,-155,-315,-349,-316,-213
114,142,28,-128,43,85,-209,-157,-317,-350,-318,-213
112,140,28,-126,42,84,-211,-158,-318,-352,-319,-213
111,137,26,-124,43,82,-211,-158,-319,-352,-319,-212
111,134,23,-122,44,79,-212,-158,-320,-353,-320,-212
111,133,22,-122,45,78,-212,-158,-321,-353,-320,-211
111,135,24,-123,44,80,-212,-158,-320,-353,-320,-212
112,137,25,-124,44,81,-209,-157,-319,-352,-319,-212
113,140,27,-126,43,84,-207,-156,-317,-351,-317,-212
114,143,29,-128,43,86,-207,-155,-316,-350,-316,-212
113,143,30,-128,42,87,-208,-155,-316,-350,-317,-212
112,142,30,-127,41,86,-209,-156,-317,-350,-318,-213
111,139,28,-125,42,84,-210,-157,-318,-351,-319,-213
111,137,26,-124,43,82,-212,-158,-319,-352,-320,-213
111,134,23,-122,44,79,-212,-158,-320,-353,-320,-212
111,132,21,-121,45,77,-212,-159,-321,-354,-320,-212
111,133,22,-122,45,78,-210,-157,-319,-353,-319,-212
112,136,24,-124,44,80,-209,-156,-317,-351,-317,-211
113,139,26,-126,44,83,-209,-156,-316,-351,-317,-212
114,142,28,-128,43,85,-208,-155,-315,-350,-316,-212
113,142,29,-127,42,86,-208,-155,-316,-349,-317,-213
112,141,29,-126,42,85,-209,-156,-316,-350,-318,-212
112,138,26,-125,43,82,-211,-157,-318,-351,-319,-212
111,136,25,-123,43,81,-211,-158,-320,-352,-320,-212
111,134,23,-122,44,79,-211,-158,-320,-353,-320,-212
111,132,21,-121,45,77,-211,-158,-320,-354,-320,-212
111,133,22,-122,45,78,-209,-156,-319,-352,-319,-212
112,136,24,-124,44,80,-208,-155,-317,-351,-318,-212
113,139,26,-126,44,83,-208,-155,-317,-351,-318,-213
114,141,27,-127,44,84,-208,-155,-316,-350,-317,-213
114,142,28,-128,43,85,-208,-155,-316,-350,-317,-213
114,141,27,-127,44,84,-210,-157,-317,-351,-318,-214
113,138,25,-125,44,82,-210,-157,-318,-351,-318,-213
112,136,24,-124,44,80,-211,-157,-320,-352,-320,-213
111,133,22,-122,45,78,-211,-157,-320,-352,-320,-212
110,131,21,-120,45,76,-210,-156,-319,-352,-318,-211
111,133,22,-122,45,78,-208,-156,-318,-351,-318,-211
112,136,24,-124,44,80,-207,-155,-317,-350,-317,-210
113,139,26,-126,44,83,-208,-155,-317,-350,-317,-211
114,141,27,-127,44,84,-208,-154,-316,-350,-316,-212
114,142,28,-128,43,85,-208,-155,-316,-350,-316,-212
114,141,27,-127,44,84,-210,-157,-317,-350,-318,-212
113,139,26,-126,44,83,-211,-157,-318,-351,-318,-211
112,136,24,-124,44,80,-211,-157,-318,-351,-318,-210
112,133,21,-122,46,77,-211,-157,-319,-352,-318,-210
111,132,21,-121,45,77,-211,-158,-320,-353,-319,-210
111,132,21,-121,45,77,-209,-157,-318,-352,-318,-210
113,135,22,-124,46,79,-209,-156,-317,-351,-317,-210
114,138,24,-126,45,81,-209,-155,-316,-351,-317,-211
114,141,27,-127,44,84,-208,-154,-315,-350,-317,-211
115,142,27,-128,44,85,-208,-154,-315,-349,-316,-211
115,141,26,-128,45,84,-209,-156,-316,-350,-317,-212
114,138,24,-126,45,81,-210,-157,-318,-351,-318,-213
112,135,23,-123,45,79,-210,-157,-318,-351,-318,-211
111,132,21,-121,45,77,-211,-157,-319,-352,-318,-211
111,131,20,-121,46,76,-211,-156,-317,-351,-318,-209
113,132,19,-122,47,76,-210,-156,-317,-351,-318,-210
114,135,21,-124,47,78,-209,-156,-317,-351,-318,-210
115,138,23,-126,46,81,-207,-154,-315,-350,-316,-210
116,141,25,-128,46,83,-207,-153,-314,-349,-316,-211
116,142,26,-129,45,84,-208,-154,-316,-350,-317,-212
115,141,26,-128,45,84,-208,-156,-316,-349,-317,-212
114,139,25,-126,45,82,-209,-157,-318,-351,-318,-212
112,136,24,-124,44,80,-209,-157,-318,-351,-317,-210
112,133,21,-122,46,77,-210,-157,-318,-352,-318,-210
112,132,20,-122,46,76,-210,-157,-318,-352,-318,-210
113,133,20,-123,47,77,-209,-156,-317,-351,-318,-211
114,135,21,-124,47,78,-208,-155,-316,-351,-317,-210
115,138,23,-126,46,81,-207,-154,-315,-350,-316,-210
115,141,26,-128,45,84,-206,-153,-315,-349,-316,-210
115,142,27,-128,44,85,-207,-153,-314,-348,-315,-210
115,141,26,-128,45,84,-209,-155,-316,-349,-316,-211
114,139,25,-126,45,82,-210,-156,-317,-350,-317,-211
113,136,23,-124,45,80,-211,-158,-319,-351,-318,-211
112,132,20,-122,46,76,-210,-157,-319,-351,-318,-210
113,130,17,-121,48,74,-209,-157,-320,-351,-319,-210
114,132,18,-123,48,75,-209,-157,-318,-351,-318,-211
114,135,21,-124,47,78,-208,-156,-316,-351,-317,-210
115,138,23,-126,46,81,-207,-155,-315,-349,-316,-210
115,141,26,-128,45,84,-206,-154,-315,-348,-316,-210
115,142,27,-128,44,85,-206,-153,-314,-348,-315,-210
114,141,27,-127,44,84,-208,-155,-316,-349,-316,-211
113,138,25,-125,44,82,-208,-156,-317,-349,-316,-209
113,135,22,-124,46,79,-209,-157,-318,-350,-317,-208
113,132,19,-122,47,76,-209,-157,-319,-351,-317,-208
113,131,18,-122,48,75,-209,-157,-319,-351,-318,-209
113,132,19,-122,47,76,-208,-156,-318,-350,-317,-208
114,134,20,-124,47,77,-207,-154,-316,-349,-316,-208
114,138,24,-126,45,81,-207,-154,-315,-349,-316,-209
115,141,26,-128,45,84,-206,-154,-314,-348,-316,-210
115,142,27,-128,44,85,-207,-153,-314,-348,-316,-209
115,141,26,-128,45,84,-209,-154,-316,-349,-317,-210
114,139,25,-126,45,82,-210,-156,-317,-350,-317,-210
113,136,23,-124,45,80,-210,-157,-318,-351,-317,-210
112,134,22,-123,45,78,-210,-157,-318,-351,-317,-209
113,133,20,-123,47,77,-210,-157,-319,-351,-317,-209
114,133,19,-123,48,76,-209,-156,-317,-350,-316,-209
115,135,20,-125,48,78,-207,-155,-316,-349,-316,-209
115,138,23,-126,46,81,-206,-154,-315,-348,-315,-210
115,141,26,-128,45,84,-205,-154,-314,-347,-315,-210
115,142,27,-128,44,85,-205,-153,-313,-346,-315,-209
115,141,26,-128,45,84,-207,-153,-314,-347,-315,-209
115,139,24,-127,46,82,-208,-155,-316,-348,-315,-209
114,136,22,-125,46,79,-210,-157,-318,-349,-316,-209
112,133,21,-122,46,77,-209,-156,-318,-350,-316,-208
113,131,18,-122,48,75,-208,-156,-318,-351,-316,-209
114,132,18,-123,48,75,-208,-155,-317,-350,-317,-209
114,135,21,-124,47,78,-207,-155,-316,-349,-316,-209
114,138,24,-126,45,81,-206,-154,-314,-348,-315,-209
115,140,25,-127,45,83,-207,-153,-313,-348,-314,-209
115,141,26,-128,45,84,-207,-154,-313,-347,-314,-209
115,140,25,-127,45,83,-208,-155,-314,-348,-315,-210
114,138,24,-126,45,81,-209,-156,-315,-349,-316,-209
114,135,21,-124,47,78,-209,-157,-317,-350,-316,-208
114,132,18,-123,48,75,-210,-157,-317,-350,-316,-208
113,131,18,-122,48,75,-209,-156,-316,-350,-316,-208
114,132,18,-123,48,75,-208,-155,-316,-350,-316,-209
114,135,21,-124,47,78,-207,-154,-315,-349,-316,-209
114,138,24,-126,45,81,-206,-153,-313,-348,-315,-208
115,140,25,-127,45,83,-205,-153,-312,-347,-313,-208
116,142,26,-129,45,84,-205,-154,-313,-347,-314,-208
115,141,26,-128,45,84,-207,-154,-314,-347,-315,-209
114,138,24,-126,45,81,-208,-156,-316,-349,-315,-209
113,135,22,-124,46,79,-208,-156,-317,-349,-315,-208
113,132,19,-122,47,76,-208,-155,-317,-349,-315,-207
112,131,19,-121,47,75,-208,-156,-318,-349,-315,-207
112,132,20,-122,46,76,-207,-155,-316,-349,-315,-207
113,135,22,-124,46,79,-206,-154,-315,-349,-315,-208
114,137,23,-125,46,80,-205,-152,-313,-348,-314,-208
115,140,25,-127,45,83,-206,-153,-313,-348,-314,-209
116,141,25,-128,46,83,-206,-153,-313,-346,-314,-209
115,140,25,-127,45,83,-208,-154,-314,-347,-315,-209
114,138,24,-126,45,81,-209,-156,-316,-349,-316,-209
114,135,21,-124,47,78,-209,-157,-317,-350,-316,-209
114,133,19,-123,48,76,-209,-157,-317,-350,-316,-208
114,131,17,-122,49,74,-208,-156,-316,-349,-315,-207
115,132,17,-123,49,75,-208,-156,-316,-349,-315,-207
115,135,20,-125,48,78,-208,-156,-315,-348,-315,-208
116,138,22,-127,47,80,-207,-153,-314,-347,-314,-208
116,140,24,-128,46,82,-206,-152,-313,-347,-313,-208
116,141,25,-128,46,83,-206,-153,-312,-346,-313,-208
116,140,24,-128,46,82,-208,-155,-314,-347,-315,-208
115,137,22,-126,47,80,-209,-156,-315,-348,-315,-208
115,135,20,-125,48,78,-209,-156,-316,-350,-316,-208
114,133,19,-123,48,76,-209,-156,-317,-350,-316,-207
114,131,17,-122,49,74,-208,-155,-317,-349,-316,-207
114,132,18,-123,48,75,-208,-155,-317,-349,-316,-207
115,135,20,-125,48,78,-207,-155,-314,-348,-315,-207
115,138,23,-126,46,81,-206,-153,-313,-347,-314,-207
116,140,24,-128,46,82,-205,-152,-313,-347,-313,-208
116,141,25,-128,46,83,-205,-152,-311,-346,-312,-207
116,140,24,-128,46,82,-206,-154,-313,-346,-313,-207
116,138,22,-127,47,80,-207,-155,-314,-348,-314,-207
115,135,20,-125,48,78,-208,-156,-316,-349,-315,-207
115,132,17,-123,49,75,-208,-156,-316,-350,-315,-207
114,131,17,-122,49,74,-208,-156,-316,-349,-315,-206
115,131,16,-123,50,74,-208,-155,-316,-349,-315,-206
116,135,19,-125,49,77,-208,-154,-315,-348,-314,-207
116,138,22,-127,47,80,-207,-153,-313,-347,-313,-207
117,140,23,-128,47,82,-205,-152,-312,-346,-312,-207
117,141,24,-129,47,83,-205,-152,-313,-346,-312,-207
118,140,22,-129,48,81,-206,-154,-314,-346,-314,-207
117,138,21,-127,48,80,-207,-155,-315,-347,-315,-208
116,135,19,-125,49,77,-208,-155,-316,-348,-315,-207
115,132,17,-123,49,75,-208,-155,-316,-349,-315,-206
114,131,17,-122,49,74,-207,-155,-315,-348,-315,-206
115,132,17,-123,49,75,-207,-155,-315,-348,-315,-206
116,135,19,-125,49,77,-206,-154,-314,-347,-313,-206
117,137,20,-127,49,79,-205,-153,-312,-346,-312,-206
117,140,23,-128,47,82,-204,-152,-311,-346,-311,-207
117,141,24,-129,47,83,-206,-152,-312,-346,-311,-207
117,140,23,-128,47,82,-206,-153,-312,-345,-311,-206
117,138,21,-127,48,80,-208,-155,-314,-348,-314,-207
116,135,19,-125,49,77,-208,-154,-315,-348,-314,-206
115,133,18,-124,49,76,-208,-155,-316,-349,-315,-206
113,132,19,-122,47,76,-207,-155,-315,-349,-314,-206
114,132,18,-123,48,75,-207,-154,-315,-349,-314,-206
115,135,20,-125,48,78,-207,-153,-314,-347,-313,-205
117,138,21,-127,48,80,-206,-153,-313,-347,-313,-206
117,140,23,-128,47,82,-204,-151,-310,-345,-311,-206
118,141,23,-129,48,82,-205,-152,-311,-345,-312,-207
117,141,24,-129,47,83,-206,-153,-313,-346,-313,-207
116,139,23,-127,47,81,-208,-154,-314,-348,-313,-207
116,136,20,-126,48,78,-209,-155,-315,-350,-314,-207
116,133,17,-124,50,75,-209,-155,-316,-350,-315,-206
116,131,15,-123,51,73,-207,-155,-316,-349,-314,-205
116,132,16,-124,50,74,-206,-154,-315,-347,-313,-205
116,135,19,-125,49,77,-206,-153,-313,-347,-312,-205
117,138,21,-127,48,80,-206,-153,-313,-347,-312,-206
118,141,23,-129,48,82,-205,-152,-311,-346,-312,-206
118,142,24,-130,47,83,-205,-152,-311,-346,-312,-206
118,141,23,-129,48,82,-207,-153,-313,-347,-313,-207
117,139,22,-128,48,81,-207,-154,-314,-348,-314,-207
116,136,20,-126,48,78,-208,-156,-316,-349,-315,-206
116,133,17,-124,50,75,-208,-156,-317,-349,-315,-206
115,131,16,-123,50,74,-208,-155,-316,-349,-314,-205
"
		117","
		132","
		15","
		-124","
		51","
		74","
		-208","
		-154","
		-315","
		-348","
		-314","
		-205"
118,135,17,-126,51,76,-207,-153,-314,-347,-312,-204
119,139,20,-129,50,80,-208,-153,-313,-347,-312,-206
119,141,22,-130,49,82,-206,-153,-311,-346,-312,-206
118,142,24,-130,47,83,-205,-153,-311,-345,-312,-206
118,142,24,-130,47,83,-206,-153,-313,-346,-312,-206
117,139,22,-128,48,81,-207,-154,-315,-347,-313,-206
116,135,19,-125,49,77,-207,-155,-315,-347,-313,-205
116,133,17,-124,50,75,-209,-156,-317,-348,-315,-206
117,132,15,-124,51,74,-209,-156,-317,-349,-315,-205
117,133,16,-125,51,75,-208,-155,-315,-348,-314,-205
117,135,18,-126,50,77,-207,-154,-314,-347,-313,-205
117,137,20,-127,49,79,-205,-151,-311,-345,-311,-204
118,140,22,-129,48,81,-206,-151,-311,-346,-311,-205
118,142,24,-130,47,83,-205,-151,-310,-345,-310,-205
119,141,22,-130,49,82,-207,-153,-312,-345,-312,-205
118,139,21,-128,49,80,-208,-154,-313,-346,-313,-205
117,136,19,-126,49,78,-209,-155,-315,-348,-314,-205
115,132,17,-123,49,75,-208,-155,-315,-347,-313,-204
115,131,16,-123,50,74,-209,-156,-316,-348,-313,-204
116,132,16,-124,50,74,-208,-155,-314,-347,-313,-204
117,134,17,-125,50,76,-206,-154,-313,-347,-312,-204
118,138,20,-128,49,79,-205,-153,-312,-347,-312,-205
119,141,22,-130,49,82,-204,-152,-311,-346,-311,-204
119,141,22,-130,49,82,-205,-152,-310,-344,-310,-204
118,140,22,-129,48,81,-207,-153,-311,-346,-312,-205
117,138,21,-127,48,80,-208,-154,-313,-347,-313,-206
116,135,19,-125,49,77,-208,-155,-314,-347,-313,-205
115,132,17,-123,49,75,-208,-155,-315,-348,-313,-205
115,132,17,-123,49,75,-207,-155,-315,-348,-313,-204
116,132,16,-124,50,74,-206,-153,-314,-347,-312,-203
116,134,18,-125,49,76,-205,-153,-312,-346,-311,-203
117,138,21,-127,48,80,-205,-153,-311,-346,-312,-204
118,141,23,-129,48,82,-205,-152,-310,-345,-311,-204
119,142,23,-130,48,83,-205,-152,-311,-345,-311,-205
119,141,22,-130,49,82,-206,-152,-311,-345,-311,-204
118,139,21,-128,49,80,-207,-153,-312,-346,-312,-204
117,137,20,-127,49,79,-208,-154,-314,-347,-313,-204
117,134,17,-125,50,76,-208,-155,-314,-347,-313,-204
116,131,15,-123,51,73,-207,-154,-314,-347,-312,-203
116,132,16,-124,50,74,-206,-153,-314,-346,-311,-202
117,135,18,-126,50,77,-206,-153,-313,-346,-312,-203
118,138,20,-128,49,79,-205,-152,-311,-345,-311,-204
119,141,22,-130,49,82,-204,-151,-310,-344,-311,-204
119,142,23,-130,48,83,-205,-152,-310,-345,-311,-205
118,141,23,-129,48,82,-206,-152,-311,-345,-311,-205
118,139,21,-128,49,80,-208,-153,-313,-346,-312,-205
117,136,19,-126,49,78,-209,-155,-314,-347,-313,-204
117,133,16,-125,51,75,-209,-155,-315,-348,-313,-204
116,131,15,-123,51,73,-208,-155,-314,-348,-313,-203
116,132,16,-124,50,74,-206,-154,-313,-347,-312,-203
117,134,17,-125,50,76,-205,-153,-312,-346,-311,-203
118,137,19,-127,50,78,-205,-152,-311,-345,-311,-204
119,141,22,-130,49,82,-204,-150,-310,-344,-310,-204
119,143,24,-131,48,84,-205,-151,-311,-344,-310,-204
118,141,23,-129,48,82,-206,-152,-312,-345,-311,-204
117,139,22,-128,48,81,-207,-153,-313,-346,-312,-204
117,137,20,-127,49,79,-208,-154,-314,-347,-313,-204
117,134,17,-125,50,76,-208,-155,-315,-348,-313,-204
117,132,15,-124,51,74,-208,-155,-315,-349,-313,-203
117,132,15,-124,51,74,-207,-154,-314,-348,-313,-203
118,135,17,-126,51,76,-206,-153,-313,-347,-312,-202
119,138,19,-128,50,79,-205,-152,-311,-346,-310,-202
118,141,23,-129,48,82,-205,-152,-310,-345,-310,-203
118,142,24,-130,47,83,-205,-152,-309,-344,-310,-204
118,142,24,-130,47,83,-206,-153,-311,-345,-311,-204
118,140,22,-129,48,81,-208,-155,-314,-347,-313,-205
117,137,20,-127,49,79,-208,-155,-315,-348,-314,-204
117,134,17,-125,50,76,-209,-155,-315,-348,-314,-204
117,132,15,-124,51,74,-209,-155,-315,-349,-314,-203
117,132,15,-124,51,74,-208,-154,-314,-348,-313,-203
118,134,16,-126,51,75,-206,-153,-313,-347,-312,-203
119,137,18,-128,51,78,-205,-151,-311,-346,-311,-203
120,140,20,-130,50,80,-204,-151,-310,-345,-311,-204
120,141,21,-130,50,81,-205,-152,-310,-345,-312,-205
120,140,20,-130,50,80,-206,-153,-311,-344,-312,-205
119,138,19,-128,50,79,-207,-154,-312,-346,-312,-204
118,136,18,-127,50,77,-208,-155,-314,-348,-313,-204
117,134,17,-125,50,76,-208,-155,-315,-348,-313,-204
117,132,15,-124,51,74,-209,-155,-316,-349,-314,-204
117,132,15,-124,51,74,-208,-154,-314,-349,-313,-203
118,135,17,-126,51,76,-207,-153,-313,-348,-313,-203
119,138,19,-128,50,79,-205,-152,-311,-346,-311,-203
120,140,20,-130,50,80,-204,-151,-310,-345,-310,-203
120,141,21,-130,50,81,-204,-152,-310,-345,-311,-204
119,141,22,-130,49,82,-205,-153,-311,-346,-312,-204
118,138,20,-128,49,79,-207,-154,-313,-347,-313,-205
117,135,18,-126,50,77,-208,-156,-315,-348,-313,-205
116,132,16,-124,50,74,-208,-155,-314,-348,-312,-203
117,131,14,-124,52,73,-209,-155,-314,-348,-312,-203
118,132,14,-125,52,73,-208,-155,-314,-347,-313,-203
118,134,16,-126,51,75,-207,-153,-314,-347,-312,-203
119,137,18,-128,51,78,-206,-152,-313,-346,-312,-203
119,139,20,-129,50,80,-206,-152,-312,-346,-311,-204
120,141,21,-130,50,81,-206,-153,-311,-346,-311,-205
119,141,22,-130,49,82,-205,-153,-310,-345,-310,-204
118,139,21,-128,49,80,-206,-154,-311,-346,-311,-204
118,136,18,-127,50,77,-207,-154,-313,-347,-313,-203
118,133,15,-125,52,74,-208,-155,-313,-348,-313,-203
117,131,14,-124,52,73,-207,-154,-313,-347,-313,-203
117,132,15,-124,51,74,-208,-154,-314,-347,-313,-204
117,135,18,-126,50,77,-208,-153,-313,-347,-313,-204
118,138,20,-128,49,79,-207,-152,-312,-346,-311,-204
119,140,21,-129,49,81,-206,-151,-311,-345,-310,-204
120,141,21,-130,50,81,-205,-152,-310,-345,-310,-204
120,141,21,-130,50,81,-205,-153,-311,-346,-311,-205
119,139,20,-129,50,80,-207,-154,-313,-346,-312,-205
118,136,18,-127,50,77,-208,-154,-313,-347,-312,-204
117,133,16,-125,51,75,-208,-155,-314,-348,-312,-203
117,132,15,-124,51,74,-208,-154,-314,-349,-313,-203
117,133,16,-125,51,75,-206,-152,-312,-347,-311,-202
119,136,17,-127,51,77,-206,-152,-312,-346,-311,-202
120,140,20,-130,50,80,-204,-150,-310,-344,-309,-202
121,144,23,-132,49,84,-203,-150,-309,-344,-309,-203
123,146,23,-134,50,85,-203,-149,-307,-342,-308,-202
124,147,23,-135,51,85,-205,-150,-307,-343,-308,-202
122,146,24,-134,49,85,-206,-150,-308,-343,-308,-201
121,144,23,-132,49,84,-206,-151,-309,-343,-309,-200
121,142,21,-131,50,82,-206,-151,-308,-343,-308,-199
121,143,22,-132,50,83,-206,-152,-309,-344,-309,-199
120,144,24,-132,48,84,-204,-150,-307,-342,-308,-198
121,148,27,-134,47,88,-202,-148,-305,-340,-306,-197
123,152,29,-137,47,91,-201,-147,-303,-339,-304,-197
124,155,31,-139,47,93,-200,-145,-301,-338,-303,-198
124,157,33,-140,46,95,-199,-144,-300,-336,-303,-198
123,157,34,-140,45,96,-199,-145,-299,-337,-304,-198
122,154,32,-138,45,93,-199,-146,-301,-338,-305,-197
121,151,30,-136,46,91,-199,-146,-302,-339,-306,-197
119,149,30,-134,45,90,-199,-148,-304,-340,-307,-197
118,147,29,-132,45,88,-200,-149,-305,-341,-308,-197
117,147,30,-132,44,89,-200,-149,-304,-340,-306,-196
120,150,30,-135,45,90,-202,-150,-303,-339,-306,-197
122,153,31,-137,46,92,-201,-148,-300,-337,-303,-196
124,156,32,-140,46,94,-202,-148,-298,-335,-301,-196
125,159,34,-142,46,97,-203,-148,-296,-334,-300,-196
125,159,34,-142,46,97,-205,-149,-297,-333,-301,-195
125,157,32,-141,47,95,-208,-151,-298,-335,-302,-196
124,154,30,-139,47,92,-209,-152,-300,-335,-302,-195
124,151,27,-137,49,89,-210,-155,-304,-337,-304,-195
123,148,25,-135,49,87,-211,-158,-307,-339,-305,-194
124,147,23,-135,51,85,-212,-160,-308,-341,-304,-194
125,149,24,-137,51,87,-213,-161,-308,-341,-303,-195
125,152,27,-138,49,90,-212,-160,-307,-340,-303,-195
126,155,29,-140,49,92,-211,-158,-306,-339,-303,-195
126,157,31,-141,48,94,-211,-156,-305,-339,-303,-196
126,156,30,-141,48,93,-212,-154,-305,-338,-303,-196
126,154,28,-140,49,91,-212,-153,-304,-338,-303,-195
127,151,24,-139,52,88,-213,-154,-305,-339,-303,-195
126,147,21,-136,53,84,-213,-155,-308,-340,-303,-195
125,144,19,-134,53,82,-212,-154,-309,-339,-302,-194
126,144,18,-135,54,81,-212,-155,-310,-340,-303,-194
127,146,19,-136,54,83,-211,-155,-309,-340,-303,-194
128,148,20,-138,54,84,-210,-153,-308,-339,-302,-194
127,150,23,-138,52,87,-208,-152,-306,-338,-301,-194
127,151,24,-139,52,88,-208,-152,-306,-338,-302,-195
125,150,25,-137,50,88,-208,-152,-307,-338,-303,-196
124,147,23,-135,51,85,-209,-153,-309,-340,-304,-198
123,142,19,-132,52,81,-210,-154,-311,-342,-306,-198
122,137,15,-129,54,76,-211,-155,-314,-344,-307,-199
121,133,12,-127,55,73,-210,-155,-315,-346,-309,-199
120,131,11,-125,55,71,-208,-154,-316,-348,-310,-201
120,131,11,-125,55,71,-207,-154,-315,-348,-310,-202
118,134,16,-126,51,75,-206,-154,-315,-348,-311,-204
117,137,20,-127,49,79,-204,-153,-314,-348,-311,-204
118,139,21,-128,49,80,-205,-154,-314,-348,-311,-204
118,139,21,-128,49,80,-206,-155,-314,-348,-311,-204
118,137,19,-127,50,78,-208,-156,-316,-348,-313,-204
118,135,17,-126,51,76,-209,-156,-317,-349,-313,-204
117,132,15,-124,51,74,-209,-156,-317,-349,-313,-203
117,130,13,-123,52,72,-208,-155,-316,-348,-311,-202
118,131,13,-124,53,72,-207,-154,-316,-348,-312,-202
119,133,14,-126,53,74,-206,-153,-315,-347,-311,-202
120,136,16,-128,52,76,-205,-152,-313,-346,-310,-202
121,139,18,-130,52,79,-204,-151,-312,-345,-309,-203
121,141,20,-131,51,81,-205,-152,-312,-345,-310,-204
121,140,19,-130,51,80,-206,-153,-312,-346,-311,-204
120,138,18,-129,51,78,-208,-154,-314,-347,-311,-204
120,135,15,-127,53,75,-209,-156,-316,-348,-312,-204
119,131,12,-125,54,72,-209,-155,-317,-348,-312,-203
118,129,11,-123,54,70,-208,-154,-316,-348,-311,-202
118,130,12,-124,53,71,-207,-154,-315,-348,-311,-202
119,132,13,-125,53,73,-206,-153,-315,-347,-310,-202
120,135,15,-127,53,75,-206,-153,-315,-347,-311,-203
121,138,17,-129,52,78,-205,-152,-313,-346,-310,-203
121,140,19,-130,51,80,-206,-152,-312,-346,-310,-204
120,140,20,-130,50,80,-206,-153,-312,-346,-311,-203
120,137,17,-128,52,77,-207,-154,-313,-346,-311,-203
120,134,14,-127,53,74,-208,-154,-314,-347,-312,-203
119,132,13,-125,53,73,-208,-155,-315,-347,-312,-202
119,131,12,-125,54,72,-209,-156,-317,-348,-312,-203
119,131,12,-125,54,72,-207,-155,-316,-348,-312,-202
119,133,14,-126,53,74,-206,-155,-315,-347,-311,-203
119,135,16,-127,52,76,-204,-153,-313,-346,-310,-202
119,138,19,-128,50,79,-204,-152,-311,-345,-309,-202
121,140,19,-130,51,80,-205,-152,-311,-346,-310,-204
120,140,20,-130,50,80,-205,-153,-311,-345,-309,-202
119,138,19,-128,50,79,-207,-154,-312,-345,-310,-203
118,135,17,-126,51,76,-208,-155,-314,-346,-311,-203
118,132,14,-125,52,73,-208,-155,-315,-347,-311,-202
118,132,14,-125,52,73,-208,-155,-316,-348,-312,-202
118,132,14,-125,52,73,-206,-154,-314,-347,-311,-201
119,134,15,-126,52,75,-205,-153,-312,-345,-310,-201
120,138,18,-129,51,78,-204,-152,-311,-345,-310,-202
120,141,21,-130,50,81,-203,-150,-309,-344,-309,-203
120,142,22,-131,49,82,-200,-148,-307,-344,-310,-205
117,141,24,-129,47,83,-197,-146,-306,-346,-313,-206
114,137,23,-125,46,80,-192,-139,-301,-347,-318,-209
111,130,19,-120,46,75,-184,-128,-293,-349,-323,-214
111,121,10,-116,51,66,-173,-111,-282,-351,-328,-220
112,113,1,-112,56,57,-163,-92,-269,-350,-333,-225
115,111,-4,-113,60,54,-154,-76,-254,-345,-335,-227
117,115,-2,-116,60,57,-147,-66,-243,-340,-333,-227
120,120,0,-120,60,60,-144,-59,-239,-335,-330,-225
123,128,5,-125,59,67,-144,-56,-234,-326,-322,-219
130,140,10,-135,60,75,-150,-55,-224,-313,-312,-210
140,152,12,-146,64,82,-156,-53,-207,-289,-294,-196
152,165,13,-158,70,89,-165,-53,-187,-261,-271,-179
161,181,20,-171,71,101,-174,-56,-164,-228,-247,-161
170,202,32,-186,69,117,-185,-67,-141,-190,-218,-139
179,229,50,-204,65,140,-203,-91,-135,-150,-183,-112
186,265,79,-225,54,172,-227,-134,-156,-112,-144,-81
190,305,115,-247,38,210,-256,-188,-202,-77,-103,-48
194,346,152,-270,21,249,-288,-243,-257,-39,-62,-16
202,383,181,-292,11,282,-320,-291,-305,15,-18,16
213,410,197,-311,8,304,-347,-326,-335,85,30,47
224,425,201,-324,12,313,-375,-357,-353,161,76,75
230,431,201,-330,15,316,-403,-388,-378,219,114,97
224,426,202,-325,11,314,-420,-408,-428,226,129,108
208,407,199,-307,5,303,-419,-409,-492,179,113,102
188,383,195,-285,-3,289,-405,-397,-547,99,81,86
171,366,195,-268,-12,281,-391,-387,-586,4,39,64
156,351,195,-253,-19,273,-378,-375,-606,-103,-9,39
145,330,185,-237,-20,258,-364,-354,-611,-215,-68,9
136,301,165,-218,-14,233,-350,-325,-607,-319,-126,-24
130,270,140,-200,-5,205,-336,-296,-593,-393,-176,-55
124,241,117,-182,4,179,-320,-268,-570,-422,-214,-83
118,214,96,-166,11,155,-302,-244,-547,-421,-242,-110
111,186,75,-148,18,131,-283,-222,-525,-417,-269,-136
106,162,56,-134,25,109,-264,-202,-505,-416,-290,-159
104,147,43,-125,31,95,-251,-190,-488,-412,-301,-172
103,140,37,-121,33,89,-245,-189,-473,-406,-305,-179
103,134,31,-118,36,83,-240,-187,-454,-401,-309,-187
104,129,25,-116,40,77,-234,-182,-434,-396,-313,-194
106,127,21,-116,43,74,-228,-178,-414,-389,-315,-199
107,128,21,-117,43,75,-223,-175,-396,-381,-313,-201
109,130,21,-119,44,76,-219,-172,-378,-373,-313,-201
110,133,23,-121,44,78,-219,-172,-364,-366,-312,-200
112,136,24,-124,44,80,-218,-171,-352,-359,-309,-197
113,138,25,-125,44,82,-216,-170,-343,-355,-307,-196
114,139,25,-126,45,82,-213,-168,-335,-350,-305,-195
115,141,26,-128,45,84,-209,-164,-328,-346,-303,-193
117,144,27,-130,45,86,-206,-157,-320,-344,-302,-193
119,147,28,-133,46,88,-202,-150,-311,-341,-301,-193
120,150,30,-135,45,90,-200,-147,-306,-341,-302,-194
120,150,30,-135,45,90,-200,-145,-303,-342,-302,-196
119,149,30,-134,45,90,-200,-146,-301,-342,-304,-198
118,145,27,-131,46,86,-200,-147,-301,-342,-306,-199
117,141,24,-129,47,83,-201,-148,-303,-344,-308,-200
117,138,21,-127,48,80,-201,-149,-304,-344,-309,-200
116,136,20,-126,48,78,-201,-148,-303,-344,-308,-199
116,137,21,-126,48,79,-200,-146,-300,-342,-307,-198
118,139,21,-128,49,80,-198,-144,-297,-340,-306,-198
120,143,23,-131,49,83,-197,-143,-294,-340,-306,-198
121,147,26,-134,48,87,-198,-143,-292,-340,-306,-200
121,147,26,-134,48,87,-197,-142,-289,-339,-305,-200
121,146,25,-133,48,86,-198,-144,-288,-339,-307,-202
120,144,24,-132,48,84,-199,-145,-289,-340,-308,-203
119,141,22,-130,49,82,-199,-145,-291,-339,-309,-202
118,138,20,-128,49,79,-200,-146,-293,-339,-309,-202
117,135,18,-126,50,77,-199,-145,-293,-338,-308,-201
118,136,18,-127,50,77,-198,-144,-292,-337,-306,-199
120,139,19,-129,51,79,-198,-143,-290,-336,-306,-199
121,143,22,-132,50,83,-198,-143,-287,-336,-305,-199
122,146,24,-134,49,85,-197,-142,-285,-334,-304,-199
121,147,26,-134,48,87,-196,-142,-284,-334,-304,-199
121,146,25,-133,48,86,-197,-143,-283,-336,-306,-201
119,144,25,-131,47,85,-197,-143,-283,-336,-306,-201
118,141,23,-129,48,82,-198,-144,-286,-337,-307,-201
117,138,21,-127,48,80,-199,-145,-288,-337,-307,-201
117,137,20,-127,49,79,-199,-144,-288,-337,-307,-200
117,137,20,-127,49,79,-198,-142,-288,-335,-305,-198
119,140,21,-129,49,81,-198,-142,-287,-334,-304,-198
121,143,22,-132,50,83,-197,-141,-284,-333,-303,-198
121,146,25,-133,48,86,-195,-140,-280,-332,-302,-197
121,148,27,-134,47,88,-195,-140,-278,-332,-301,-198
121,148,27,-134,47,88,-197,-141,-278,-333,-302,-199
120,145,25,-132,48,85,-198,-142,-278,-334,-304,-199
119,141,22,-130,49,82,-198,-143,-280,-334,-305,-198
118,138,20,-128,49,79,-199,-143,-283,-334,-305,-197
117,137,20,-127,49,79,-198,-142,-283,-333,-304,-196
118,138,20,-128,49,79,-198,-141,-282,-332,-303,-196
120,141,21,-130,50,81,-197,-140,-281,-331,-302,-196
123,144,21,-133,51,83,-197,-139,-278,-330,-301,-195
122,147,25,-134,49,86,-194,-137,-275,-329,-298,-195
121,148,27,-134,47,88,-193,-138,-273,-329,-298,-196
121,147,26,-134,48,87,-195,-140,-274,-330,-300,-197
120,145,25,-132,48,85,-196,-141,-274,-330,-301,-197
120,143,23,-131,49,83,-198,-141,-276,-329,-301,-197
119,140,21,-129,49,81,-199,-142,-278,-329,-301,-196
119,138,19,-128,50,79,-199,-141,-278,-328,-301,-195
"
		119","
		139","
		20","
		-129","
		50","
		80","
		-198","
		-141","
		-278","
		-327","
		-300","
		-194"
121,142,21,-131,50,82,-197,-139,-275,-325,-298,-193
122,145,23,-133,50,84,-197,-137,-273,-324,-297,-193
122,149,27,-135,48,88,-196,-136,-270,-323,-296,-194
123,151,28,-137,48,90,-195,-137,-267,-322,-295,-195
124,151,27,-137,49,89,-194,-138,-267,-323,-297,-195
122,148,26,-135,48,87,-196,-139,-269,-323,-298,-196
120,144,24,-132,48,84,-197,-140,-269,-322,-298,-195
120,141,21,-130,50,81,-198,-140,-271,-321,-298,-194
120,140,20,-130,50,80,-197,-139,-271,-320,-297,-192
121,140,19,-130,51,80,-197,-138,-270,-319,-296,-192
122,144,22,-133,50,83,-196,-137,-267,-318,-294,-191
123,148,25,-135,49,87,-195,-136,-265,-318,-294,-191
124,151,27,-137,49,89,-194,-135,-262,-316,-292,-191
124,153,29,-138,48,91,-194,-134,-260,-316,-291,-191
124,153,29,-138,48,91,-194,-134,-259,-316,-292,-193
124,151,27,-137,49,89,-195,-135,-260,-315,-293,-193
124,148,24,-136,50,86,-196,-136,-261,-315,-293,-192
123,146,23,-134,50,85,-196,-136,-261,-313,-292,-190
123,145,22,-134,51,84,-195,-135,-261,-312,-291,-189
124,147,23,-135,51,85,-195,-134,-261,-311,-290,-188
126,150,24,-138,51,87,-194,-132,-258,-310,-288,-187
127,154,27,-140,50,91,-191,-129,-253,-307,-286,-187
128,158,30,-143,49,94,-191,-129,-251,-306,-286,-187
129,160,31,-144,49,96,-190,-128,-249,-305,-285,-187
130,160,30,-145,50,95,-191,-128,-247,-304,-285,-187
130,159,29,-144,51,94,-193,-130,-248,-305,-286,-188
129,155,26,-142,52,91,-193,-129,-249,-304,-286,-187
128,152,24,-140,52,88,-193,-130,-249,-303,-286,-186
128,151,23,-139,53,87,-194,-130,-249,-302,-285,-185
129,153,24,-141,53,89,-194,-129,-248,-300,-284,-184
129,156,27,-142,51,92,-193,-127,-246,-298,-282,-183
131,160,29,-145,51,95,-192,-125,-243,-297,-281,-183
132,163,31,-147,51,97,-190,-123,-238,-294,-279,-183
132,165,33,-148,50,99,-189,-122,-236,-293,-278,-183
132,165,33,-148,50,99,-190,-123,-235,-292,-279,-184
132,163,31,-147,51,97,-191,-123,-235,-291,-279,-183
132,160,28,-146,52,94,-192,-123,-235,-290,-278,-183
132,159,27,-145,53,93,-193,-123,-235,-289,-278,-182
132,159,27,-145,53,93,-193,-123,-235,-288,-277,-181
132,159,27,-145,53,93,-192,-121,-233,-285,-275,-179
133,163,30,-148,52,97,-191,-119,-230,-283,-272,-178
134,166,32,-150,51,99,-190,-117,-226,-281,-271,-179
136,170,34,-153,51,102,-190,-117,-223,-279,-271,-179
136,172,36,-154,50,104,-188,-115,-219,-276,-269,-178
137,173,36,-155,51,105,-189,-114,-217,-275,-269,-178
136,171,35,-153,51,103,-190,-114,-215,-273,-269,-177
136,169,33,-152,52,101,-191,-114,-216,-271,-268,-177
136,167,31,-151,53,99,-192,-114,-217,-271,-268,-176
136,166,30,-151,53,98,-191,-112,-215,-268,-266,-174
137,167,30,-152,54,99,-191,-110,-212,-265,-264,-172
138,171,33,-154,53,102,-190,-109,-208,-262,-262,-171
140,175,35,-157,53,105,-189,-107,-203,-258,-259,-170
141,179,38,-160,52,109,-186,-105,-197,-254,-256,-169
142,182,40,-162,51,111,-186,-104,-194,-250,-254,-169
142,182,40,-162,51,111,-187,-103,-190,-247,-253,-168
142,181,39,-161,52,110,-188,-103,-188,-245,-252,-168
142,179,37,-160,53,108,-190,-104,-188,-244,-252,-168
142,178,36,-160,53,107,-189,-103,-187,-240,-250,-165
142,178,36,-160,53,107,-188,-101,-185,-236,-247,-163
144,180,36,-162,54,108,-188,-99,-182,-232,-244,-161
146,185,39,-165,54,112,-187,-96,-177,-227,-241,-159
147,190,43,-168,52,117,-186,-94,-171,-222,-237,-158
149,194,45,-171,52,120,-185,-92,-165,-217,-234,-157
150,197,47,-173,52,122,-184,-90,-160,-211,-230,-155
151,199,48,-175,52,124,-186,-90,-157,-207,-229,-154
151,198,47,-174,52,123,-187,-90,-154,-203,-228,-153
151,196,45,-173,53,121,-188,-90,-152,-199,-225,-151
151,194,43,-172,54,119,-190,-90,-151,-194,-223,-149
152,195,43,-173,55,119,-189,-88,-148,-188,-219,-146
154,198,44,-176,55,121,-190,-87,-145,-183,-216,-143
156,203,47,-179,55,125,-189,-85,-140,-177,-211,-141
158,208,50,-183,54,129,-189,-83,-134,-171,-206,-139
160,213,53,-186,54,133,-187,-82,-127,-164,-201,-137
162,217,55,-189,54,136,-188,-82,-123,-159,-199,-136
162,220,58,-191,52,139,-189,-82,-121,-154,-197,-136
162,219,57,-190,53,138,-191,-82,-118,-150,-195,-134
162,218,56,-190,53,137,-192,-81,-116,-144,-192,-131
162,217,55,-189,54,136,-194,-82,-115,-139,-189,-129
163,217,54,-190,55,136,-194,-82,-113,-133,-186,-126
165,220,55,-192,55,138,-195,-81,-111,-129,-182,-124
167,224,57,-195,55,141,-194,-79,-106,-124,-178,-122
169,229,60,-199,55,145,-194,-78,-100,-118,-173,-119
171,234,63,-202,54,149,-194,-78,-97,-113,-170,-119
173,237,64,-205,55,151,-194,-78,-93,-107,-167,-117
174,238,64,-206,55,151,-196,-80,-90,-104,-166,-117
173,237,64,-205,55,151,-197,-80,-89,-100,-164,-115
172,236,64,-204,54,150,-199,-82,-91,-98,-164,-115
173,234,61,-203,56,148,-201,-83,-92,-94,-161,-112
173,234,61,-203,56,148,-202,-84,-92,-91,-159,-110
174,234,60,-204,57,147,-203,-85,-92,-88,-157,-109
175,238,63,-206,56,151,-203,-84,-90,-85,-154,-107
176,242,66,-209,55,154,-203,-85,-89,-83,-152,-107
176,245,69,-210,54,157,-203,-86,-88,-80,-151,-106
176,246,70,-211,53,158,-203,-87,-87,-79,-150,-105
176,246,70,-211,53,158,-204,-90,-88,-80,-150,-105
176,245,69,-210,54,157,-207,-94,-91,-82,-152,-107
174,241,67,-207,54,154,-208,-96,-96,-84,-154,-106
172,237,65,-204,54,151,-210,-98,-101,-86,-155,-106
172,236,64,-204,54,150,-212,-101,-106,-91,-158,-107
172,235,63,-203,55,149,-212,-102,-109,-94,-160,-107
172,234,62,-203,55,148,-212,-103,-112,-99,-162,-108
171,235,64,-203,54,150,-211,-104,-114,-103,-164,-110
171,237,66,-204,53,152,-211,-106,-117,-109,-167,-113
170,235,65,-202,53,150,-210,-109,-122,-116,-171,-116
167,231,64,-199,52,148,-210,-110,-127,-124,-176,-119
164,226,62,-195,51,144,-212,-113,-134,-133,-183,-123
162,220,58,-191,52,139,-213,-116,-142,-142,-188,-126
159,214,55,-186,52,135,-214,-118,-150,-150,-193,-128
157,210,53,-183,52,132,-215,-119,-158,-159,-198,-131
155,206,51,-180,52,129,-213,-119,-164,-167,-202,-133
154,204,50,-179,52,127,-210,-119,-170,-175,-207,-135
154,204,50,-179,52,127,-209,-120,-175,-183,-211,-139
154,203,49,-178,53,126,-208,-121,-179,-192,-216,-143
152,201,49,-176,52,125,-205,-121,-184,-199,-220,-145
150,197,47,-173,52,122,-205,-122,-190,-208,-226,-150
147,191,44,-169,52,118,-205,-125,-198,-217,-232,-153
144,184,40,-164,52,112,-206,-127,-206,-226,-238,-157
141,177,36,-159,53,107,-206,-129,-213,-234,-243,-159
140,173,33,-156,54,103,-206,-129,-220,-241,-247,-162
140,170,30,-155,55,100,-205,-128,-225,-247,-250,-164
139,170,31,-154,54,101,-204,-128,-229,-253,-254,-167
138,170,32,-154,53,101,-201,-128,-230,-257,-256,-168
137,170,33,-153,52,102,-200,-128,-233,-262,-259,-172
136,169,33,-152,52,101,-199,-128,-236,-267,-262,-175
134,167,33,-150,51,100,-199,-128,-239,-272,-266,-177
133,163,30,-148,52,97,-200,-130,-244,-276,-270,-179
131,158,27,-144,52,93,-201,-132,-249,-281,-273,-181
130,153,23,-141,54,88,-201,-133,-254,-285,-276,-182
129,149,20,-139,55,85,-201,-133,-257,-288,-277,-183
128,147,19,-137,55,83,-200,-133,-260,-291,-279,-183
128,147,19,-137,55,83,-198,-131,-261,-293,-280,-184
128,149,21,-138,54,85,-197,-131,-261,-296,-281,-186
129,151,22,-140,54,87,-196,-131,-262,-298,-282,-188
129,152,23,-140,53,88,-195,-130,-262,-299,-283,-189
127,150,23,-138,52,87,-195,-131,-264,-301,-286,-191
125,147,22,-136,52,85,-195,-133,-267,-303,-288,-192
123,142,19,-132,52,81,-196,-134,-270,-306,-290,-193
122,138,16,-130,53,77,-196,-134,-272,-307,-291,-193
122,136,14,-129,54,75,-197,-134,-275,-309,-293,-193
123,136,13,-129,55,75,-197,-133,-276,-309,-293,-193
123,137,14,-130,55,76,-195,-131,-275,-309,-292,-193
123,140,17,-131,53,79,-194,-131,-274,-309,-292,-193
123,142,19,-132,52,81,-193,-131,-273,-310,-292,-194
124,143,19,-133,53,81,-193,-131,-272,-311,-292,-196
123,143,20,-133,52,82,-193,-130,-272,-311,-292,-195
123,141,18,-132,53,80,-194,-132,-274,-312,-295,-196
121,137,16,-129,53,77,-195,-133,-276,-314,-296,-196
119,133,14,-126,53,74,-195,-133,-278,-315,-297,-196
119,131,12,-125,54,72,-195,-132,-279,-315,-296,-195
120,132,12,-126,54,72,-195,-132,-280,-316,-296,-195
121,134,13,-127,54,74,-194,-132,-280,-316,-296,-195
122,136,14,-129,54,75,-193,-131,-279,-315,-295,-195
122,138,16,-130,53,77,-191,-130,-276,-314,-293,-195
122,140,18,-131,52,79,-192,-130,-275,-315,-294,-196
122,140,18,-131,52,79,-192,-131,-275,-316,-296,-197
121,138,17,-129,52,78,-193,-132,-276,-316,-297,-198
120,135,15,-127,53,75,-194,-133,-278,-318,-298,-198
120,133,13,-126,54,73,-195,-134,-280,-319,-299,-197
119,132,13,-125,53,73,-195,-133,-281,-319,-298,-196
120,132,12,-126,54,72,-195,-133,-282,-320,-298,-196
121,134,13,-127,54,74,-194,-132,-281,-319,-298,-195
122,137,15,-129,54,76,-193,-131,-278,-318,-296,-194
123,139,16,-131,54,78,-191,-130,-275,-316,-295,-194
123,141,18,-132,53,80,-191,-130,-274,-316,-296,-195
122,142,20,-132,51,81,-191,-131,-274,-317,-296,-196
121,140,19,-130,51,80,-193,-132,-275,-318,-297,-197
120,137,17,-128,52,77,-193,-132,-276,-319,-298,-196
120,134,14,-127,53,74,-194,-133,-279,-319,-298,-196
120,133,13,-126,54,73,-195,-133,-281,-320,-298,-196
120,133,13,-126,54,73,-194,-132,-280,-319,-298,-195
121,136,15,-128,53,76,-193,-131,-278,-318,-297,-195
121,139,18,-130,52,79,-192,-130,-276,-317,-296,-194
122,142,20,-132,51,81,-191,-130,-274,-317,-296,-195
122,144,22,-133,50,83,-191,-128,-272,-316,-294,-194
122,144,22,-133,50,83,-192,-130,-272,-316,-294,-194
122,142,20,-132,51,81,-194,-132,-273,-318,-296,-195
121,139,18,-130,52,79,-194,-132,-275,-318,-296,-194
120,136,16,-128,52,76,-195,-133,-277,-318,-297,-194
120,134,14,-127,53,74,-195,-133,-277,-319,-296,-193
120,134,14,-127,53,74,-194,-132,-277,-319,-296,-192
121,136,15,-128,53,76,-193,-131,-276,-318,-295,-192
122,140,18,-131,52,79,-192,-130,-275,-317,-295,-192
122,143,21,-132,51,82,-191,-128,-272,-316,-295,-192
123,145,22,-134,51,84,-192,-129,-272,-317,-295,-193
123,145,22,-134,51,84,-192,-130,-271,-318,-295,-194
122,143,21,-132,51,82,-193,-131,-271,-319,-296,-194
121,140,19,-130,51,80,-195,-133,-274,-320,-297,-194
120,137,17,-128,52,77,-194,-132,-276,-320,-296,-193
120,136,16,-128,52,76,-195,-133,-277,-321,-297,-193
120,136,16,-128,52,76,-194,-132,-277,-320,-296,-192
121,137,16,-129,53,77,-193,-131,-276,-320,-295,-191
122,141,19,-131,52,80,-192,-129,-274,-319,-294,-190
123,145,22,-134,51,84,-192,-129,-273,-319,-294,-191
123,147,24,-135,50,86,-191,-130,-272,-319,-294,-192
122,146,24,-134,49,85,-192,-130,-271,-320,-294,-193
121,144,23,-132,49,84,-193,-132,-273,-321,-296,-194
120,141,21,-130,50,81,-195,-133,-276,-322,-297,-194
120,138,18,-129,51,78,-196,-134,-278,-323,-297,-194
119,136,17,-127,51,77,-196,-133,-279,-323,-297,-193
119,137,18,-128,51,78,-195,-133,-279,-323,-297,-192
119,138,19,-128,50,79,-193,-131,-278,-322,-295,-191
120,141,21,-130,50,81,-193,-131,-277,-322,-295,-192
121,144,23,-132,49,84,-192,-130,-275,-322,-294,-192
122,147,25,-134,49,86,-191,-129,-274,-321,-294,-192
122,146,24,-134,49,85,-192,-130,-275,-322,-295,-193
122,144,22,-133,50,83,-194,-132,-276,-323,-296,-193
121,141,20,-131,51,81,-195,-134,-278,-324,-297,-193
120,138,18,-129,51,78,-196,-134,-280,-325,-298,-193
120,136,16,-128,52,76,-196,-134,-281,-324,-297,-192
120,136,16,-128,52,76,-196,-133,-281,-325,-297,-192
120,137,17,-128,52,77,-194,-133,-280,-324,-296,-191
120,139,19,-129,51,79,-192,-132,-279,-324,-295,-191
121,141,20,-131,51,81,-191,-132,-277,-323,-295,-192
121,143,22,-132,50,83,-192,-132,-277,-323,-296,-193
121,143,22,-132,50,83,-192,-132,-277,-324,-297,-194
120,142,22,-131,49,82,-194,-133,-278,-325,-298,-194
119,139,20,-129,50,80,-196,-134,-281,-327,-299,-195
118,136,18,-127,50,77,-196,-134,-283,-327,-299,-195
118,134,16,-126,51,75,-197,-135,-284,-328,-300,-195
119,133,14,-126,53,74,-197,-135,-284,-327,-300,-195
120,134,14,-127,53,74,-194,-134,-283,-326,-299,-194
120,137,17,-128,52,77,-192,-133,-282,-325,-298,-194
121,140,19,-130,51,80,-192,-133,-281,-325,-298,-195
121,141,20,-131,51,81,-192,-131,-279,-324,-298,-196
120,141,21,-130,50,81,-193,-132,-279,-326,-300,-197
119,139,20,-129,50,80,-193,-134,-281,-327,-301,-198
118,136,18,-127,50,77,-194,-135,-283,-327,-301,-197
118,133,15,-125,52,74,-195,-135,-285,-328,-302,-197
117,131,14,-124,52,73,-195,-136,-287,-328,-302,-196
117,130,13,-123,52,72,-194,-136,-287,-327,-302,-195
119,132,13,-125,53,73,-193,-135,-286,-327,-301,-195
120,134,14,-127,53,74,-192,-134,-285,-327,-301,-195
120,136,16,-128,52,76,-191,-133,-283,-326,-300,-195
120,138,18,-129,51,78,-191,-132,-283,-326,-300,-197
120,138,18,-129,51,78,-192,-134,-283,-327,-301,-198
120,136,16,-128,52,76,-193,-135,-284,-328,-302,-198
119,134,15,-126,52,75,-194,-136,-286,-329,-304,-198
119,131,12,-125,54,72,-195,-137,-288,-330,-305,-198
118,129,11,-123,54,70,-195,-137,-289,-331,-305,-198
118,128,10,-123,54,69,-195,-137,-290,-331,-304,-197
118,129,11,-123,54,70,-194,-136,-289,-329,-303,-197
119,131,12,-125,54,72,-193,-135,-288,-329,-302,-197
119,134,15,-126,52,75,-192,-134,-286,-329,-302,-198
120,136,16,-128,52,76,-192,-133,-286,-329,-302,-198
120,137,17,-128,52,77,-193,-134,-285,-330,-304,-199
119,135,16,-127,52,76,-193,-135,-286,-330,-305,-200
118,132,14,-125,52,73,-194,-136,-288,-332,-306,-200
117,129,12,-123,53,71,-195,-137,-291,-333,-307,-201
116,126,10,-121,53,68,-195,-137,-291,-333,-306,-199
116,125,9,-120,54,67,-194,-136,-292,-333,-306,-198
117,127,10,-122,54,69,-193,-136,-291,-333,-306,-198
118,130,12,-124,53,71,-192,-135,-289,-332,-305,-198
119,133,14,-126,53,74,-192,-135,-288,-333,-305,-199
120,135,15,-127,53,75,-191,-134,-287,-333,-305,-200
119,136,17,-127,51,77,-192,-135,-287,-332,-306,-200
118,133,15,-125,52,74,-193,-135,-288,-332,-306,-200
117,130,13,-123,52,72,-195,-137,-290,-333,-307,-200
117,126,9,-121,54,68,-196,-138,-292,-334,-308,-199
116,124,8,-120,54,66,-196,-139,-293,-334,-308,-199
116,124,8,-120,54,66,-195,-138,-293,-334,-308,-200
117,125,8,-121,55,67,-192,-136,-291,-333,-307,-199
118,127,9,-122,55,68,-191,-135,-290,-332,-306,-200
118,130,12,-124,53,71,-190,-134,-288,-332,-306,-201
118,132,14,-125,52,73,-190,-134,-287,-332,-307,-202
118,132,14,-125,52,73,-191,-134,-287,-332,-307,-202
118,131,13,-124,53,72,-192,-135,-288,-334,-309,-202
117,128,11,-122,53,70,-193,-136,-290,-334,-309,-201
116,125,9,-120,54,67,-194,-137,-292,-335,-310,-201
115,122,7,-118,54,65,-194,-137,-293,-335,-309,-201
115,122,7,-118,54,65,-194,-136,-293,-335,-309,-200
115,124,9,-119,53,67,-193,-135,-292,-334,-307,-199
117,127,10,-122,54,69,-192,-135,-291,-335,-307,-200
118,129,11,-123,54,70,-191,-133,-289,-334,-306,-200
118,131,13,-124,53,72,-191,-134,-288,-334,-307,-201
117,131,14,-124,52,73,-190,-134,-287,-333,-307,-201
117,129,12,-123,53,71,-191,-135,-288,-333,-308,-202
116,126,10,-121,53,68,-192,-136,-290,-334,-309,-201
115,122,7,-118,54,65,-194,-137,-293,-336,-311,-202
114,120,6,-117,54,63,-194,-137,-294,-336,-311,-202
114,120,6,-117,54,63,-194,-137,-294,-335,-310,-201
115,121,6,-118,55,64,-192,-135,-292,-334,-308,-200
115,124,9,-119,53,67,-192,-134,-291,-333,-308,-201
115,126,11,-120,52,69,-191,-133,-289,-333,-307,-201
116,128,12,-122,52,70,-190,-133,-287,-333,-307,-201
116,129,13,-122,52,71,-190,-133,-287,-333,-307,-202
115,128,13,-121,51,71,-191,-135,-290,-334,-309,-203
114,126,12,-120,51,69,-193,-137,-292,-335,-310,-203
114,123,9,-118,53,66,-194,-138,-294,-336,-311,-203
114,121,7,-117,54,64,-195,-138,-295,-336,-311,-202
114,119,5,-116,55,62,-194,-136,-294,-335,-311,-201
114,121,7,-117,54,64,-193,-136,-293,-335,-310,-200
115,124,9,-119,53,67,-192,-135,-291,-334,-308,-200
115,126,11,-120,52,69,-191,-134,-289,-333,-308,-201
115,127,12,-121,52,70,-189,-134,-288,-333,-307,-201
115,127,12,-121,52,70,-189,-134,-287,-333,-308,-201
114,126,12,-120,51,69,-191,-134,-289,-334,-309,-202
114,124,10,-119,52,67,-192,-136,-290,-334,-310,-202
113,121,8,-117,53,65,-193,-137,-293,-335,-312,-202
112,119,7,-115,53,63,-193,-137,-294,-336,-312,-202
"
		112","
		118","
		6","
		-115","
		53","
		62","
		-193","
		-136","
		-294","
		-335","
		-311","
		-200"
113,119,6,-116,54,63,-193,-135,-293,-334,-310,-201
114,121,7,-117,54,64,-191,-134,-290,-333,-310,-201
115,124,9,-119,53,67,-189,-133,-288,-332,-308,-201
115,127,12,-121,52,70,-189,-133,-288,-332,-307,-201
115,127,12,-121,52,70,-190,-133,-287,-333,-308,-201
114,125,11,-119,52,68,-190,-134,-289,-333,-309,-201
113,122,9,-117,52,66,-192,-136,-291,-335,-311,-202
112,119,7,-115,53,63,-193,-137,-293,-336,-312,-201
112,117,5,-114,54,61,-193,-137,-294,-336,-311,-201
112,117,5,-114,54,61,-193,-136,-294,-336,-311,-200
113,118,5,-115,54,62,-193,-136,-293,-336,-310,-201
113,121,8,-117,53,65,-192,-135,-292,-334,-309,-201
114,124,10,-119,52,67,-191,-134,-290,-333,-309,-202
114,126,12,-120,51,69,-190,-134,-289,-333,-309,-202
115,126,11,-120,52,69,-189,-133,-289,-333,-310,-202
114,124,10,-119,52,67,-189,-134,-289,-333,-310,-203
113,121,8,-117,53,65,-191,-136,-291,-334,-312,-204
112,118,6,-115,53,62,-192,-136,-292,-334,-312,-203
112,116,4,-114,54,60,-193,-137,-294,-335,-313,-203
113,115,2,-114,56,59,-192,-136,-294,-335,-312,-202
114,118,4,-116,55,61,-192,-135,-293,-335,-311,-201
114,120,6,-117,54,63,-191,-134,-292,-334,-309,-202
115,123,8,-119,54,66,-190,-134,-290,-333,-309,-202
114,124,10,-119,52,67,-189,-133,-287,-332,-309,-202
114,125,11,-119,52,68,-190,-133,-288,-332,-310,-203
113,124,11,-118,51,68,-192,-135,-290,-333,-311,-204
113,122,9,-117,52,66,-193,-136,-291,-335,-312,-204
112,119,7,-115,53,63,-194,-136,-293,-336,-313,-203
112,117,5,-114,54,61,-193,-136,-294,-335,-312,-202
112,116,4,-114,54,60,-192,-136,-294,-335,-312,-201
113,117,4,-115,55,61,-191,-134,-292,-334,-310,-200
114,120,6,-117,54,63,-191,-135,-292,-334,-311,-202
115,123,8,-119,54,66,-190,-134,-290,-333,-310,-202
115,125,10,-120,53,68,-190,-133,-288,-333,-310,-202
115,125,10,-120,53,68,-190,-134,-288,-333,-311,-203
113,123,10,-118,52,67,-190,-134,-288,-332,-310,-203
112,121,9,-116,52,65,-191,-135,-290,-333,-311,-203
111,117,6,-114,53,62,-192,-136,-292,-335,-312,-203
110,115,5,-112,53,60,-192,-136,-293,-335,-312,-202
111,115,4,-113,54,60,-192,-136,-293,-335,-312,-201
112,117,5,-114,54,61,-192,-135,-293,-335,-311,-201
114,119,5,-116,55,62,-190,-134,-291,-333,-310,-200
115,121,6,-118,55,64,-188,-132,-288,-332,-309,-200
116,123,7,-119,55,65,-187,-132,-286,-332,-308,-200
115,125,10,-120,53,68,-189,-134,-287,-332,-310,-202
114,123,9,-118,53,66,-190,-135,-288,-333,-311,-203
113,120,7,-116,53,64,-191,-135,-290,-333,-311,-203
112,117,5,-114,54,61,-192,-136,-293,-334,-313,-203
111,115,4,-113,54,60,-193,-136,-294,-335,-313,-203
112,114,2,-113,55,58,-192,-135,-293,-335,-313,-202
113,116,3,-114,55,60,-192,-135,-292,-334,-312,-202
114,118,4,-116,55,61,-191,-134,-290,-334,-312,-202
114,121,7,-117,54,64,-190,-134,-289,-334,-311,-202
114,123,9,-118,53,66,-189,-134,-288,-333,-311,-203
114,124,10,-119,52,67,-189,-134,-287,-332,-311,-203
113,122,9,-117,52,66,-189,-134,-288,-333,-311,-203
112,120,8,-116,52,64,-190,-135,-290,-333,-312,-203
112,117,5,-114,54,61,-192,-136,-292,-334,-313,-202
112,115,3,-113,55,59,-193,-135,-292,-334,-313,-201
113,114,1,-113,56,58,-192,-135,-293,-334,-312,-201
113,115,2,-114,56,59,-192,-135,-292,-334,-312,-202
113,117,4,-115,55,61,-189,-133,-289,-333,-310,-201
113,119,6,-116,54,63,-188,-133,-287,-332,-310,-201
114,121,7,-117,54,64,-187,-132,-286,-331,-310,-201
114,123,9,-118,53,66,-188,-133,-286,-332,-312,-203
113,121,8,-117,53,65,-190,-134,-287,-333,-312,-204
112,119,7,-115,53,63,-192,-136,-291,-335,-313,-204
111,116,5,-113,53,61,-193,-135,-291,-334,-313,-203
110,114,4,-112,53,59,-192,-135,-292,-334,-313,-202
110,113,3,-111,54,58,-191,-135,-293,-334,-313,-201
111,114,3,-112,54,59,-191,-135,-292,-334,-312,-201
112,117,5,-114,54,61,-189,-133,-290,-333,-311,-201
113,120,7,-116,53,64,-188,-132,-287,-332,-310,-201
113,122,9,-117,52,66,-188,-132,-286,-332,-310,-202
113,123,10,-118,52,67,-188,-132,-286,-331,-309,-202
112,122,10,-117,51,66,-189,-133,-288,-332,-311,-203
111,120,9,-115,51,65,-190,-134,-289,-333,-312,-203
111,117,6,-114,53,62,-191,-135,-290,-334,-313,-202
111,114,3,-112,54,59,-192,-135,-291,-334,-313,-202
111,113,2,-112,55,58,-191,-134,-290,-333,-312,-200
111,114,3,-112,54,59,-191,-134,-290,-333,-312,-200
112,116,4,-114,54,60,-190,-133,-289,-333,-311,-200
112,119,7,-115,53,63,-189,-132,-288,-332,-310,-201
112,121,9,-116,52,65,-188,-131,-287,-331,-310,-201
112,122,10,-117,51,66,-188,-132,-287,-332,-311,-203
112,121,9,-116,52,65,-188,-132,-287,-332,-311,-202
111,119,8,-115,52,64,-189,-133,-289,-333,-312,-202
110,116,6,-113,52,61,-191,-134,-291,-334,-313,-202
109,113,4,-111,53,59,-191,-135,-292,-334,-314,-201
108,112,4,-110,52,58,-190,-134,-290,-333,-313,-200
110,113,3,-111,54,58,-189,-133,-289,-332,-312,-200
111,116,5,-113,53,61,-188,-132,-287,-331,-310,-199
112,119,7,-115,53,63,-187,-131,-286,-331,-311,-200
113,121,8,-117,53,65,-187,-132,-285,-331,-311,-201
112,121,9,-116,52,65,-187,-131,-284,-330,-310,-201
111,120,9,-115,51,65,-188,-132,-286,-332,-312,-203
110,118,8,-114,51,63,-189,-133,-288,-333,-313,-203
109,115,6,-112,52,61,-189,-133,-288,-332,-313,-202
109,113,4,-111,53,59,-190,-135,-290,-333,-314,-202
108,112,4,-110,52,58,-190,-134,-290,-332,-313,-200
109,113,4,-111,53,59,-190,-133,-291,-332,-312,-200
110,116,6,-113,52,61,-189,-132,-288,-331,-312,-200
111,118,7,-114,52,63,-188,-131,-285,-330,-311,-200
111,120,9,-115,51,65,-187,-130,-284,-330,-310,-200
111,121,10,-116,51,66,-187,-130,-284,-330,-310,-200
111,121,10,-116,51,66,-188,-132,-286,-331,-311,-201
110,118,8,-114,51,63,-190,-134,-289,-332,-312,-202
109,115,6,-112,52,61,-190,-134,-290,-332,-312,-201
108,112,4,-110,52,58,-190,-134,-290,-332,-312,-201
108,111,3,-109,53,57,-190,-134,-290,-332,-312,-201
109,112,3,-110,53,58,-188,-132,-288,-331,-311,-200
111,115,4,-113,54,60,-188,-132,-287,-331,-311,-200
112,118,6,-115,53,62,-186,-130,-284,-330,-310,-199
112,121,9,-116,52,65,-186,-131,-284,-330,-310,-201
111,121,10,-116,51,66,-187,-131,-284,-331,-311,-202
110,120,10,-115,50,65,-188,-132,-285,-331,-311,-203
109,117,8,-113,51,63,-189,-133,-287,-331,-312,-203
108,114,6,-111,51,60,-190,-134,-289,-332,-313,-202
108,112,4,-110,52,58,-190,-134,-290,-332,-313,-201
108,110,2,-109,53,56,-189,-133,-290,-332,-312,-200
108,112,4,-110,52,58,-189,-133,-289,-332,-312,-200
109,114,5,-111,52,60,-188,-132,-288,-331,-311,-200
110,116,6,-113,52,61,-187,-131,-286,-330,-310,-199
110,118,8,-114,51,63,-185,-130,-284,-328,-310,-199
111,119,8,-115,52,64,-186,-131,-283,-329,-310,-200
110,118,8,-114,51,63,-188,-132,-285,-331,-312,-201
110,116,6,-113,52,61,-188,-132,-287,-332,-313,-201
109,114,5,-111,52,60,-189,-133,-288,-333,-313,-201
108,112,4,-110,52,58,-190,-133,-289,-333,-313,-200
108,110,2,-109,53,56,-189,-132,-289,-332,-312,-199
109,112,3,-110,53,58,-189,-132,-289,-331,-312,-200
109,114,5,-111,52,60,-189,-132,-288,-330,-311,-200
109,116,7,-112,51,62,-187,-131,-286,-330,-311,-200
110,118,8,-114,51,63,-185,-130,-284,-330,-311,-201
111,120,9,-115,51,65,-186,-130,-285,-330,-312,-203
110,118,8,-114,51,63,-186,-131,-285,-331,-313,-203
108,116,8,-112,50,62,-187,-131,-286,-331,-313,-202
107,113,6,-110,51,60,-188,-132,-288,-332,-313,-202
107,112,5,-109,51,59,-189,-133,-289,-332,-313,-202
108,111,3,-109,53,57,-189,-133,-289,-332,-313,-201
109,112,3,-110,53,58,-188,-132,-287,-330,-312,-200
109,113,4,-111,53,59,-187,-132,-286,-330,-311,-199
109,115,6,-112,52,61,-185,-130,-283,-328,-310,-198
110,117,7,-113,52,62,-185,-129,-282,-328,-309,-199
110,118,8,-114,51,63,-186,-130,-283,-328,-310,-201
109,117,8,-113,51,63,-186,-130,-283,-329,-310,-201
108,115,7,-111,51,61,-187,-131,-285,-330,-311,-201
107,112,5,-109,51,59,-188,-132,-287,-331,-312,-201
107,110,3,-108,52,57,-189,-133,-288,-332,-313,-200
107,110,3,-108,52,57,-189,-133,-288,-332,-313,-200
107,111,4,-109,52,58,-188,-132,-287,-330,-312,-199
108,114,6,-111,51,60,-188,-132,-286,-330,-312,-200
109,116,7,-112,51,62,-187,-131,-284,-329,-311,-200
110,118,8,-114,51,63,-186,-130,-283,-329,-311,-200
109,118,9,-113,50,64,-184,-129,-282,-328,-310,-200
109,117,8,-113,51,63,-186,-130,-284,-329,-311,-201
108,114,6,-111,51,60,-189,-131,-285,-330,-312,-201
107,112,5,-109,51,59,-189,-132,-287,-331,-313,-201
107,110,3,-108,52,57,-188,-132,-288,-331,-312,-200
107,109,2,-108,53,56,-189,-132,-288,-331,-313,-200
108,109,1,-108,54,55,-188,-131,-287,-330,-312,-199
108,112,4,-110,52,58,-187,-130,-285,-330,-311,-199
109,115,6,-112,52,61,-185,-129,-283,-329,-310,-199
110,118,8,-114,51,63,-186,-129,-282,-329,-310,-200
110,119,9,-114,51,64,-185,-129,-281,-328,-310,-200
109,118,9,-113,50,64,-186,-130,-283,-327,-310,-200
108,116,8,-112,50,62,-187,-131,-284,-328,-311,-200
107,113,6,-110,51,60,-188,-132,-286,-330,-312,-200
106,110,4,-108,51,57,-188,-132,-287,-331,-313,-200
106,109,3,-107,52,56,-188,-132,-288,-330,-312,-199
107,110,3,-108,52,57,-188,-132,-287,-329,-311,-199
107,112,5,-109,51,59,-187,-131,-285,-328,-310,-199
107,114,7,-110,50,61,-185,-129,-282,-327,-310,-198
107,117,10,-112,49,64,-185,-128,-281,-327,-310,-199
108,118,10,-113,49,64,-185,-129,-282,-328,-311,-201
108,117,9,-112,50,63,-186,-131,-283,-328,-311,-202
107,114,7,-110,50,61,-186,-131,-284,-328,-311,-201
106,111,5,-108,51,58,-188,-131,-286,-329,-313,-201
106,109,3,-107,52,56,-188,-131,-287,-329,-313,-200
106,108,2,-107,52,55,-187,-131,-287,-330,-313,-200
106,109,3,-107,52,56,-186,-129,-285,-329,-312,-198
107,112,5,-109,51,59,-186,-129,-284,-329,-312,-199
108,116,8,-112,50,62,-185,-128,-282,-328,-310,-198
109,118,9,-113,50,64,-185,-128,-281,-327,-309,-198
109,118,9,-113,50,64,-185,-128,-281,-327,-310,-198
108,117,9,-112,50,63,-186,-129,-282,-328,-311,-199
107,115,8,-111,50,62,-186,-130,-284,-329,-312,-200
105,111,6,-108,50,59,-186,-130,-284,-329,-313,-199
105,108,3,-106,51,56,-187,-131,-285,-329,-313,-198
106,109,3,-107,52,56,-187,-130,-286,-329,-313,-198
106,110,4,-108,51,57,-188,-130,-286,-330,-313,-198
107,112,5,-109,51,59,-187,-129,-285,-329,-312,-199
108,115,7,-111,51,61,-186,-128,-283,-328,-311,-199
109,117,8,-113,51,63,-184,-127,-282,-326,-310,-199
109,118,9,-113,50,64,-183,-126,-281,-326,-311,-199
108,118,10,-113,49,64,-185,-128,-282,-328,-312,-200
107,116,9,-111,49,63,-186,-130,-284,-328,-313,-200
107,113,6,-110,51,60,-188,-131,-286,-329,-314,-199
105,109,4,-107,51,57,-187,-130,-285,-329,-313,-198
105,107,2,-106,52,55,-186,-130,-285,-330,-312,-197
106,108,2,-107,52,55,-186,-129,-285,-329,-312,-197
107,111,4,-109,52,58,-184,-128,-283,-327,-312,-197
107,113,6,-110,51,60,-183,-127,-282,-327,-311,-197
107,115,8,-111,50,62,-183,-127,-281,-327,-311,-198
108,117,9,-112,50,63,-185,-128,-281,-327,-311,-199
109,117,8,-113,51,63,-186,-128,-282,-328,-311,-199
108,115,7,-111,51,61,-187,-129,-284,-328,-312,-200
106,112,6,-109,50,59,-188,-130,-285,-328,-312,-199
105,110,5,-107,50,58,-188,-131,-286,-329,-313,-199
105,109,4,-107,51,57,-188,-130,-286,-330,-313,-198
105,109,4,-107,51,57,-187,-129,-286,-328,-312,-197
107,111,4,-109,52,58,-185,-127,-284,-327,-311,-197
108,114,6,-111,51,60,-184,-127,-282,-326,-311,-199
107,117,10,-112,49,64,-183,-127,-280,-325,-311,-199
107,117,10,-112,49,64,-184,-127,-280,-326,-311,-199
107,116,9,-111,49,63,-185,-128,-281,-327,-312,-200
107,115,8,-111,50,62,-188,-130,-284,-329,-314,-200
106,112,6,-109,50,59,-188,-130,-285,-329,-313,-199
105,110,5,-107,50,58,-189,-130,-286,-329,-313,-198
105,108,3,-106,51,56,-189,-130,-286,-329,-314,-198
106,109,3,-107,52,56,-188,-129,-285,-329,-313,-198
106,110,4,-108,51,57,-186,-128,-284,-328,-313,-199
106,112,6,-109,50,59,-183,-126,-281,-327,-311,-198
107,115,8,-111,50,62,-184,-126,-281,-327,-312,-200
108,117,9,-112,50,63,-184,-127,-281,-327,-313,-201
108,116,8,-112,50,62,-185,-127,-281,-327,-313,-200
107,114,7,-110,50,61,-186,-128,-282,-328,-314,-200
105,112,7,-108,49,60,-187,-129,-284,-329,-314,-200
103,109,6,-106,49,58,-187,-129,-285,-328,-313,-198
103,108,5,-105,49,57,-187,-129,-286,-329,-313,-198
103,108,5,-105,49,57,-186,-128,-286,-329,-313,-198
105,110,5,-107,50,58,-186,-127,-284,-328,-312,-198
107,113,6,-110,51,60,-185,-127,-282,-327,-311,-199
108,115,7,-111,51,61,-184,-126,-280,-325,-310,-198
107,116,9,-111,49,63,-183,-126,-279,-325,-311,-199
106,116,10,-111,48,63,-185,-127,-281,-326,-313,-200
106,114,8,-110,49,61,-186,-128,-283,-327,-314,-199
105,111,6,-108,50,59,-187,-129,-284,-328,-314,-199
104,108,4,-106,50,56,-186,-128,-284,-327,-313,-197
105,106,1,-105,52,54,-187,-128,-285,-328,-313,-197
106,107,1,-106,53,54,-186,-128,-284,-328,-312,-197
106,109,3,-107,52,56,-183,-126,-282,-326,-311,-196
107,112,5,-109,51,59,-184,-126,-282,-327,-312,-198
107,114,7,-110,50,61,-183,-125,-280,-326,-311,-198
107,116,9,-111,49,63,-183,-126,-279,-326,-311,-199
106,116,10,-111,48,63,-186,-126,-281,-326,-312,-200
105,114,9,-109,48,62,-188,-128,-283,-327,-313,-200
104,111,7,-107,49,59,-187,-129,-283,-327,-313,-199
103,108,5,-105,49,57,-186,-129,-285,-328,-313,-199
104,107,3,-105,51,55,-187,-129,-286,-328,-313,-199
105,108,3,-106,51,56,-187,-128,-285,-328,-313,-199
105,110,5,-107,50,58,-185,-126,-282,-327,-312,-197
106,112,6,-109,50,59,-184,-125,-280,-326,-311,-197
106,114,8,-110,49,61,-184,-125,-279,-325,-311,-198
107,116,9,-111,49,63,-184,-126,-279,-325,-311,-198
107,115,8,-111,50,62,-184,-127,-280,-325,-312,-199
106,113,7,-109,50,60,-185,-127,-281,-326,-313,-199
105,109,4,-107,51,57,-185,-127,-281,-326,-313,-197
103,106,3,-104,50,55,-185,-127,-282,-326,-312,-196
104,106,2,-105,51,54,-186,-129,-284,-327,-313,-196
105,108,3,-106,51,56,-187,-128,-283,-327,-313,-196
106,110,4,-108,51,57,-186,-126,-281,-326,-312,-196
106,112,6,-109,50,59,-184,-124,-279,-324,-310,-196
108,115,7,-111,51,61,-184,-124,-279,-324,-310,-197
109,117,8,-113,51,63,-185,-124,-279,-324,-310,-198
108,116,8,-112,50,62,-184,-125,-279,-325,-311,-198
106,114,8,-110,49,61,-186,-127,-281,-326,-313,-199
105,111,6,-108,50,59,-187,-128,-283,-327,-314,-199
104,108,4,-106,50,56,-186,-127,-283,-327,-314,-197
104,107,3,-105,51,55,-187,-127,-284,-327,-314,-197
104,107,3,-105,51,55,-186,-126,-282,-327,-313,-196
105,110,5,-107,50,58,-185,-126,-281,-326,-312,-197
105,113,8,-109,49,61,-183,-125,-280,-325,-311,-197
105,115,10,-110,48,63,-183,-124,-279,-325,-311,-197
105,117,12,-111,47,65,-184,-124,-279,-325,-311,-198
106,116,10,-111,48,63,-184,-125,-279,-324,-312,-199
106,114,8,-110,49,61,-185,-125,-280,-325,-312,-198
105,111,6,-108,50,59,-186,-126,-282,-326,-313,-198
105,108,3,-106,51,56,-186,-127,-283,-327,-314,-198
104,107,3,-105,51,55,-186,-127,-283,-327,-313,-197
105,106,1,-105,52,54,-185,-126,-282,-326,-312,-197
105,108,3,-106,51,56,-184,-125,-280,-325,-312,-197
106,111,5,-108,51,58,-183,-123,-278,-323,-310,-196
106,114,8,-110,49,61,-182,-122,-277,-323,-309,-197
106,116,10,-111,48,63,-183,-124,-277,-323,-310,-198
106,115,9,-110,49,62,-183,-124,-276,-323,-310,-197
106,114,8,-110,49,61,-185,-125,-279,-325,-312,-198
105,112,7,-108,49,60,-186,-126,-280,-326,-313,-198
105,109,4,-107,51,57,-186,-127,-282,-326,-314,-198
104,107,3,-105,51,55,-186,-126,-282,-326,-313,-197
104,108,4,-106,50,56,-185,-125,-282,-325,-312,-197
105,111,6,-108,50,59,-185,-126,-281,-325,-312,-198
105,113,8,-109,49,61,-183,-124,-278,-323,-310,-196
105,115,10,-110,48,63,-182,-124,-277,-323,-309,-197
105,116,11,-110,47,64,-182,-124,-276,-323,-310,-197
106,116,10,-111,48,63,-185,-125,-278,-324,-313,-199
105,114,9,-109,48,62,-186,-125,-279,-325,-313,-199
105,112,7,-108,49,60,-186,-126,-281,-326,-314,-199
104,109,5,-106,50,57,-186,-126,-282,-326,-314,-198
"
		103","
		106","
		3","
		-104","
		50","
		55","
		-184","
		-125","
		-281","
		-325","
		-312","
		-196"
104,107,3,-105,51,55,-184,-126,-282,-325,-312,-196
104,109,5,-106,50,57,-183,-125,-280,-324,-311,-196
105,112,7,-108,49,60,-182,-123,-278,-323,-310,-196
106,115,9,-110,49,62,-181,-123,-276,-322,-310,-196
106,117,11,-111,48,64,-182,-123,-275,-323,-310,-197
106,116,10,-111,48,63,-184,-124,-277,-324,-311,-198
105,114,9,-109,48,62,-185,-125,-279,-324,-312,-198
105,111,6,-108,50,59,-186,-126,-281,-325,-312,-198
104,109,5,-106,50,57,-186,-127,-282,-325,-313,-198
104,107,3,-105,51,55,-186,-127,-282,-325,-313,-197
103,107,4,-105,50,56,-185,-126,-281,-324,-313,-196
103,109,6,-106,49,58,-183,-124,-279,-323,-311,-195
104,112,8,-108,48,60,-182,-123,-278,-322,-311,-196
105,115,10,-110,48,63,-181,-122,-276,-321,-310,-196
106,117,11,-111,48,64,-182,-123,-276,-322,-310,-197
105,117,12,-111,47,65,-183,-124,-277,-323,-310,-198
105,115,10,-110,48,63,-184,-125,-278,-323,-311,-197
104,112,8,-108,48,60,-185,-125,-280,-324,-312,-197
104,109,5,-106,50,57,-185,-126,-282,-325,-312,-196
103,108,5,-105,49,57,-185,-125,-281,-324,-312,-195
104,109,5,-106,50,57,-184,-125,-281,-324,-312,-195
105,110,5,-107,50,58,-182,-124,-279,-323,-310,-194
104,113,9,-108,48,61,-181,-123,-277,-322,-310,-194
105,116,11,-110,47,64,-181,-122,-275,-321,-310,-195
107,118,11,-112,48,65,-182,-122,-276,-322,-311,-197
106,117,11,-111,48,64,-183,-123,-277,-322,-310,-197
104,115,11,-109,47,63,-184,-124,-278,-323,-311,-197
104,112,8,-108,48,60,-184,-125,-279,-323,-312,-196
103,110,7,-106,48,59,-185,-125,-280,-323,-311,-196
103,109,6,-106,49,58,-185,-124,-280,-322,-310,-194
104,110,6,-107,49,58,-184,-124,-279,-322,-310,-194
106,113,7,-109,50,60,-183,-123,-277,-321,-310,-194
106,117,11,-111,48,64,-181,-121,-275,-319,-308,-193
107,121,14,-114,47,68,-180,-120,-274,-319,-307,-193
107,124,17,-115,45,71,-180,-120,-272,-318,-307,-193
108,126,18,-117,45,72,-180,-121,-272,-318,-307,-194
107,125,18,-116,45,72,-181,-121,-272,-317,-307,-193
107,123,16,-115,46,70,-182,-122,-273,-317,-307,-193
106,121,15,-113,46,68,-182,-122,-274,-318,-307,-192
105,120,15,-112,45,68,-181,-122,-275,-318,-307,-191
106,122,16,-114,45,69,-181,-119,-273,-317,-306,-190
107,125,18,-116,45,72,-179,-116,-270,-315,-304,-189
108,128,20,-118,44,74,-177,-116,-267,-313,-303,-189
109,130,21,-119,44,76,-175,-116,-266,-313,-303,-189
108,131,23,-119,43,77,-173,-115,-265,-313,-302,-189
107,131,24,-119,42,78,-174,-116,-266,-313,-303,-189
106,130,24,-118,41,77,-175,-117,-267,-314,-305,-190
105,128,23,-116,41,76,-177,-120,-270,-315,-306,-190
104,125,21,-114,42,73,-179,-122,-272,-316,-306,-190
103,123,20,-113,42,72,-180,-122,-272,-315,-305,-189
105,124,19,-114,43,72,-182,-123,-271,-315,-304,-189
107,129,22,-118,43,76,-182,-123,-269,-314,-303,-187
108,133,25,-120,42,79,-182,-123,-267,-312,-302,-186
109,136,27,-122,41,82,-182,-122,-265,-311,-300,-185
109,137,28,-123,41,83,-184,-123,-264,-311,-300,-186
109,137,28,-123,41,83,-185,-125,-266,-311,-302,-187
109,134,25,-121,42,80,-186,-126,-269,-313,-303,-187
109,130,21,-119,44,76,-187,-126,-270,-314,-303,-186
108,126,18,-117,45,72,-189,-129,-273,-315,-304,-187
107,124,17,-115,45,71,-190,-131,-276,-317,-304,-187
107,125,18,-116,45,72,-191,-133,-278,-318,-304,-187
107,127,20,-117,44,74,-190,-131,-277,-317,-303,-187
108,129,21,-118,44,75,-188,-128,-275,-316,-302,-186
109,132,23,-120,43,78,-186,-125,-272,-314,-301,-186
111,134,23,-122,44,79,-185,-124,-269,-312,-300,-186
111,133,22,-122,45,78,-185,-124,-269,-311,-301,-186
111,129,18,-120,47,74,-187,-124,-271,-312,-301,-187
111,125,14,-118,49,70,-188,-125,-273,-313,-301,-186
110,122,12,-116,49,67,-189,-127,-276,-315,-301,-186
110,120,10,-115,50,65,-189,-127,-277,-315,-301,-185
109,120,11,-114,49,66,-189,-126,-278,-316,-301,-185
109,122,13,-115,48,68,-187,-125,-277,-315,-302,-185
109,123,14,-116,48,69,-184,-122,-274,-313,-301,-185
109,125,16,-117,47,71,-182,-122,-273,-314,-301,-187
108,125,17,-116,46,71,-181,-121,-273,-314,-302,-188
108,123,15,-115,47,69,-184,-123,-276,-316,-305,-190
107,119,12,-113,48,66,-185,-125,-279,-319,-307,-192
104,114,10,-109,47,62,-185,-126,-282,-322,-308,-193
102,109,7,-105,48,58,-185,-127,-284,-323,-310,-194
101,106,5,-103,48,56,-185,-127,-285,-324,-311,-194
101,106,5,-103,48,56,-184,-126,-286,-325,-311,-194
102,109,7,-105,48,58,-183,-126,-284,-324,-311,-194
102,112,10,-107,46,61,-182,-125,-281,-323,-309,-194
103,114,11,-108,46,63,-181,-125,-279,-321,-307,-194
103,116,13,-109,45,65,-181,-125,-280,-321,-308,-194
103,116,13,-109,45,65,-182,-125,-280,-321,-309,-195
103,114,11,-108,46,63,-183,-125,-280,-321,-309,-194
102,112,10,-107,46,61,-183,-125,-282,-322,-310,-194
101,109,8,-105,47,59,-184,-125,-283,-323,-310,-193
101,108,7,-104,47,58,-184,-124,-283,-322,-309,-191
102,108,6,-105,48,57,-184,-125,-283,-323,-309,-192
103,110,7,-106,48,59,-183,-125,-282,-323,-309,-192
103,112,9,-107,47,61,-182,-124,-280,-321,-307,-192
103,114,11,-108,46,63,-182,-124,-279,-321,-307,-192
103,116,13,-109,45,65,-182,-124,-280,-321,-308,-193
103,116,13,-109,45,65,-182,-125,-280,-321,-308,-194
103,114,11,-108,46,63,-182,-125,-281,-321,-308,-194
102,112,10,-107,46,61,-183,-126,-282,-322,-309,-193
101,109,8,-105,47,59,-184,-127,-283,-323,-310,-193
100,107,7,-103,47,57,-184,-127,-283,-323,-310,-193
100,106,6,-103,47,56,-182,-125,-282,-322,-308,-192
101,109,8,-105,47,59,-182,-124,-281,-322,-308,-193
103,112,9,-107,47,61,-181,-123,-279,-321,-307,-192
104,115,11,-109,47,63,-181,-124,-279,-320,-308,-193
104,117,13,-110,46,65,-182,-124,-278,-320,-307,-193
103,116,13,-109,45,65,-183,-125,-279,-321,-308,-194
102,114,12,-108,45,63,-183,-126,-280,-321,-309,-194
101,112,11,-106,45,62,-184,-126,-281,-322,-309,-193
101,110,9,-105,46,60,-185,-127,-282,-322,-309,-192
102,109,7,-105,48,58,-186,-127,-283,-323,-309,-192
102,109,7,-105,48,58,-184,-126,-282,-322,-308,-191
103,110,7,-106,48,59,-183,-125,-281,-322,-308,-191
103,113,10,-108,47,62,-181,-124,-279,-321,-307,-192
103,115,12,-109,46,64,-181,-123,-277,-318,-305,-192
103,117,14,-110,45,66,-182,-124,-277,-319,-305,-193
103,117,14,-110,45,66,-183,-125,-277,-320,-306,-193
102,115,13,-108,45,64,-184,-126,-279,-320,-307,-193
101,113,12,-107,45,63,-185,-126,-280,-320,-307,-193
101,111,10,-106,46,61,-185,-126,-281,-320,-307,-192
100,109,9,-104,46,59,-184,-126,-281,-319,-307,-191
100,109,9,-104,46,59,-183,-125,-280,-319,-306,-191
100,110,10,-105,45,60,-181,-123,-277,-319,-307,-193
99,112,13,-105,43,63,-176,-118,-272,-318,-307,-194
99,114,15,-106,42,65,-171,-113,-266,-318,-310,-198
98,111,13,-104,43,62,-162,-102,-255,-317,-313,-202
98,104,6,-101,46,55,-152,-87,-243,-316,-319,-208
98,96,-2,-97,50,47,-142,-70,-230,-313,-323,-213
99,90,-9,-94,54,41,-136,-59,-218,-310,-327,-216
100,87,-13,-93,57,37,-131,-50,-207,-305,-327,-216
100,88,-12,-94,56,38,-127,-42,-201,-301,-325,-213
102,94,-8,-98,55,43,-127,-39,-198,-297,-321,-209
106,104,-2,-105,54,51,-128,-37,-192,-288,-313,-202
114,118,4,-116,55,61,-132,-36,-179,-270,-297,-191
124,136,12,-130,56,74,-140,-37,-163,-246,-277,-176
135,157,22,-146,57,90,-152,-41,-142,-216,-254,-158
145,180,35,-162,55,108,-163,-48,-117,-181,-227,-138
154,207,53,-180,51,130,-178,-64,-100,-142,-196,-114
161,239,78,-200,42,159,-201,-94,-102,-105,-158,-84
164,274,110,-219,27,192,-226,-137,-134,-71,-120,-52
165,310,145,-237,10,228,-251,-180,-187,-44,-82,-22
168,343,175,-255,-3,259,-277,-222,-251,-12,-45,6
173,373,200,-273,-13,287,-304,-264,-313,35,-4,35
180,394,214,-287,-17,304,-329,-302,-364,95,42,62
184,405,221,-294,-18,313,-350,-335,-406,149,81,84
181,403,222,-292,-20,313,-362,-355,-447,170,101,95
170,384,214,-277,-22,299,-360,-356,-490,137,90,88
153,353,200,-253,-23,277,-344,-338,-528,60,54,66
137,321,184,-229,-23,253,-325,-316,-555,-37,7,39
122,295,173,-208,-25,234,-311,-300,-570,-142,-47,12
109,271,162,-190,-26,217,-297,-284,-572,-245,-106,-18
101,245,144,-173,-21,195,-286,-263,-567,-335,-162,-49
96,219,123,-157,-13,171,-276,-239,-555,-396,-208,-77
94,196,102,-145,-4,149,-264,-215,-534,-418,-241,-101
90,177,87,-133,2,132,-253,-196,-508,-412,-266,-123
86,160,74,-123,6,117,-240,-179,-485,-402,-285,-144
84,143,59,-113,13,101,-227,-163,-467,-398,-300,-161
83,128,45,-105,19,87,-217,-153,-456,-396,-309,-173
82,116,34,-99,24,75,-211,-148,-449,-394,-313,-179
80,108,28,-94,26,68,-205,-147,-437,-391,-316,-184
78,100,22,-89,28,61,-200,-146,-422,-387,-319,-188
78,95,17,-86,31,56,-196,-142,-404,-381,-320,-192
79,94,15,-86,32,55,-191,-137,-385,-373,-319,-194
83,96,13,-89,35,55,-185,-132,-364,-364,-317,-195
88,100,12,-94,38,56,-182,-129,-345,-354,-314,-194
92,108,16,-100,38,62,-184,-130,-331,-345,-310,-192
94,114,20,-104,37,67,-186,-132,-320,-337,-306,-190
94,117,23,-105,36,70,-187,-134,-310,-330,-304,-187
94,117,23,-105,36,70,-187,-135,-303,-326,-303,-186
94,116,22,-105,36,69,-186,-134,-296,-323,-301,-185
95,116,21,-105,37,69,-185,-130,-289,-319,-300,-183
96,116,20,-106,38,68,-182,-125,-281,-316,-299,-182
97,117,20,-107,39,69,-179,-121,-275,-315,-299,-183
99,120,21,-109,39,71,-176,-118,-271,-314,-299,-185
101,123,22,-112,40,73,-175,-118,-267,-313,-299,-186
101,123,22,-112,40,73,-174,-117,-266,-312,-300,-187
100,122,22,-111,39,72,-176,-118,-266,-312,-301,-187
99,121,22,-110,39,72,-177,-119,-267,-311,-300,-187
99,118,19,-108,40,69,-178,-119,-268,-311,-300,-186
98,115,17,-106,41,66,-179,-119,-268,-311,-300,-186
99,114,15,-106,42,65,-179,-119,-267,-311,-300,-186
100,115,15,-107,43,65,-178,-118,-264,-310,-300,-185
100,116,16,-108,42,66,-177,-118,-261,-310,-300,-186
101,118,17,-109,42,68,-175,-117,-258,-309,-299,-186
101,120,19,-110,41,70,-174,-116,-254,-307,-298,-186
101,122,21,-111,40,72,-174,-117,-253,-306,-298,-187
101,122,21,-111,40,72,-174,-116,-254,-305,-298,-186
101,122,21,-111,40,72,-177,-117,-256,-306,-298,-186
101,120,19,-110,41,70,-179,-119,-257,-306,-298,-185
101,118,17,-109,42,68,-180,-120,-259,-307,-299,-185
101,116,15,-108,43,66,-179,-119,-258,-306,-298,-184
101,116,15,-108,43,66,-178,-119,-257,-306,-298,-184
101,117,16,-109,43,67,-177,-118,-254,-306,-297,-183
101,119,18,-110,42,69,-175,-116,-251,-305,-296,-184
102,121,19,-111,42,70,-174,-116,-249,-305,-296,-184
102,124,22,-113,40,73,-174,-116,-249,-304,-295,-185
102,124,22,-113,40,73,-175,-116,-250,-303,-295,-184
102,123,21,-112,41,72,-176,-117,-252,-303,-295,-184
102,121,19,-111,42,70,-177,-118,-254,-303,-295,-183
102,119,17,-110,43,68,-178,-118,-255,-304,-295,-182
102,117,15,-109,44,66,-179,-118,-254,-305,-295,-182
102,117,15,-109,44,66,-178,-117,-253,-305,-295,-182
102,118,16,-110,43,67,-176,-116,-250,-304,-294,-182
102,120,18,-111,42,69,-175,-116,-248,-303,-293,-182
103,123,20,-113,42,72,-173,-115,-245,-302,-293,-182
103,125,22,-114,41,74,-173,-115,-245,-301,-293,-183
103,126,23,-114,40,75,-175,-116,-247,-301,-293,-183
102,125,23,-113,40,74,-176,-116,-248,-301,-293,-182
102,123,21,-112,41,72,-178,-118,-251,-302,-294,-182
101,121,20,-111,41,71,-179,-118,-251,-302,-293,-182
101,119,18,-110,42,69,-178,-117,-250,-302,-292,-180
101,118,17,-109,42,68,-178,-116,-249,-301,-291,-180
101,119,18,-110,42,69,-176,-115,-246,-300,-290,-179
102,122,20,-112,41,71,-175,-114,-244,-299,-289,-179
103,125,22,-114,41,74,-174,-115,-242,-299,-290,-181
103,127,24,-115,40,76,-173,-113,-240,-296,-288,-181
104,127,23,-115,41,75,-175,-115,-242,-296,-290,-181
103,127,24,-115,40,76,-176,-116,-243,-295,-289,-180
102,125,23,-113,40,74,-177,-117,-245,-295,-289,-179
102,122,20,-112,41,71,-178,-117,-246,-295,-289,-178
102,120,18,-111,42,69,-178,-117,-246,-296,-289,-178
102,121,19,-111,42,70,-177,-115,-244,-295,-288,-177
103,122,19,-112,42,71,-176,-114,-241,-295,-287,-176
103,125,22,-114,41,74,-175,-112,-238,-293,-286,-176
104,127,23,-115,41,75,-173,-112,-236,-291,-286,-177
104,129,25,-116,40,77,-173,-112,-235,-289,-285,-177
104,129,25,-116,40,77,-173,-113,-236,-289,-285,-177
104,128,24,-116,40,76,-175,-114,-238,-289,-285,-177
104,127,23,-115,41,75,-178,-115,-240,-290,-285,-177
103,125,22,-114,41,74,-178,-115,-240,-290,-285,-177
103,123,20,-113,42,72,-178,-115,-239,-289,-284,-176
103,122,19,-112,42,71,-177,-114,-237,-288,-283,-175
104,124,20,-114,42,72,-176,-113,-235,-288,-282,-175
105,127,22,-116,42,75,-174,-111,-231,-286,-281,-174
106,130,24,-118,41,77,-172,-110,-229,-284,-280,-174
106,132,26,-119,40,79,-173,-111,-227,-282,-279,-174
107,133,26,-120,41,80,-174,-112,-229,-282,-280,-175
107,133,26,-120,41,80,-176,-113,-230,-282,-280,-175
106,130,24,-118,41,77,-177,-112,-230,-281,-279,-173
106,128,22,-117,42,75,-178,-113,-232,-281,-279,-173
106,127,21,-116,43,74,-178,-112,-231,-280,-278,-171
106,126,20,-116,43,73,-176,-111,-228,-279,-277,-171
106,127,21,-116,43,74,-174,-109,-224,-277,-275,-170
107,131,24,-119,42,78,-174,-109,-222,-276,-275,-170
108,134,26,-121,41,80,-173,-108,-220,-274,-274,-170
109,136,27,-122,41,82,-173,-107,-219,-273,-273,-171
109,137,28,-123,41,83,-175,-108,-220,-272,-274,-172
108,136,28,-122,40,82,-176,-108,-220,-270,-273,-171
108,134,26,-121,41,80,-177,-108,-221,-269,-272,-170
108,132,24,-120,42,78,-178,-109,-221,-270,-273,-169
109,131,22,-120,44,77,-178,-109,-220,-269,-272,-168
109,132,23,-120,43,78,-177,-108,-218,-268,-271,-167
109,133,24,-121,43,79,-175,-105,-214,-266,-269,-165
110,136,26,-123,42,81,-174,-105,-212,-265,-268,-166
111,139,28,-125,42,84,-173,-104,-210,-262,-267,-166
112,142,30,-127,41,86,-172,-102,-208,-260,-265,-166
113,142,29,-127,42,86,-173,-103,-207,-259,-265,-166
112,141,29,-126,42,85,-174,-103,-206,-257,-263,-165
112,140,28,-126,42,84,-176,-105,-207,-256,-263,-164
112,139,27,-125,43,83,-176,-104,-206,-254,-261,-162
112,138,26,-125,43,82,-177,-104,-205,-253,-260,-161
112,137,25,-124,44,81,-177,-102,-201,-251,-259,-160
113,139,26,-126,44,83,-175,-100,-198,-249,-258,-160
114,143,29,-128,43,86,-173,-98,-194,-246,-256,-159
115,146,31,-130,42,89,-173,-97,-191,-244,-255,-160
115,148,33,-131,41,91,-171,-95,-188,-241,-253,-159
116,149,33,-132,42,91,-172,-96,-187,-239,-252,-159
116,149,33,-132,42,91,-173,-96,-187,-236,-250,-158
117,148,31,-132,43,90,-175,-97,-187,-234,-250,-157
117,147,30,-132,44,89,-176,-96,-186,-233,-249,-156
117,147,30,-132,44,89,-176,-95,-183,-230,-248,-154
118,147,29,-132,45,88,-175,-93,-179,-227,-245,-152
119,150,31,-134,44,91,-173,-92,-174,-224,-243,-150
121,154,33,-137,44,94,-172,-91,-170,-220,-241,-150
122,158,36,-140,43,97,-172,-91,-166,-216,-239,-150
123,161,38,-142,43,100,-171,-89,-162,-212,-236,-149
124,162,38,-143,43,100,-171,-89,-161,-209,-234,-148
124,163,39,-143,43,101,-173,-88,-159,-205,-232,-146
124,162,38,-143,43,100,-175,-88,-158,-202,-230,-144
124,161,37,-142,44,99,-176,-87,-156,-198,-227,-142
125,161,36,-143,45,99,-176,-86,-153,-194,-224,-140
126,162,36,-144,45,99,-175,-85,-148,-189,-222,-138
128,164,36,-146,46,100,-172,-83,-143,-184,-219,-136
129,169,40,-149,45,105,-172,-81,-138,-179,-216,-135
130,174,44,-152,43,109,-173,-80,-133,-174,-213,-134
132,178,46,-155,43,112,-173,-79,-129,-168,-209,-132
134,180,46,-157,44,113,-172,-78,-126,-163,-205,-131
135,181,46,-158,45,114,-175,-79,-125,-159,-203,-130
135,180,45,-157,45,113,-176,-78,-123,-154,-201,-128
135,180,45,-157,45,113,-177,-78,-121,-149,-198,-125
136,180,44,-158,46,112,-177,-77,-118,-144,-195,-122
137,181,44,-159,47,113,-177,-77,-113,-139,-191,-120
139,185,46,-162,47,116,-177,-75,-108,-133,-187,-118
141,190,49,-165,46,120,-176,-74,-103,-127,-183,-116
143,195,52,-169,46,124,-175,-72,-98,-120,-180,-114
144,199,55,-171,45,127,-177,-72,-95,-115,-177,-114
145,201,56,-173,45,129,-178,-71,-93,-110,-173,-112
146,202,56,-174,45,129,-180,-73,-92,-105,-171,-110
146,201,55,-173,46,128,-181,-72,-89,-100,-167,-107
146,200,54,-173,46,127,-182,-72,-88,-96,-164,-104
"
		147","
		201","
		54","
		-174","
		47","
		128","
		-184","
		-73","
		-86","
		-92","
		-161","
		-103"
149,203,54,-176,48,129,-184,-73,-82,-88,-158,-101
150,205,55,-177,48,130,-184,-72,-78,-83,-155,-99
151,209,58,-180,47,134,-183,-72,-75,-79,-152,-98
152,213,61,-182,46,137,-181,-71,-71,-74,-149,-96
154,217,63,-185,46,140,-181,-71,-69,-70,-147,-95
155,219,64,-187,46,142,-184,-72,-69,-67,-145,-94
155,220,65,-187,45,143,-187,-74,-71,-65,-145,-94
155,219,64,-187,46,142,-188,-75,-72,-62,-143,-92
155,217,62,-186,47,140,-190,-77,-73,-61,-142,-91
154,216,62,-185,46,139,-190,-77,-73,-60,-140,-88
154,215,61,-184,47,138,-190,-78,-74,-59,-140,-87
154,217,63,-185,46,140,-190,-78,-73,-58,-139,-87
155,220,65,-187,45,143,-190,-80,-73,-58,-139,-88
155,223,68,-189,44,146,-189,-81,-73,-59,-139,-88
156,225,69,-190,44,147,-190,-83,-76,-61,-140,-89
155,225,70,-190,43,148,-191,-84,-79,-64,-142,-90
154,223,69,-188,43,146,-193,-86,-84,-68,-144,-91
152,219,67,-185,43,143,-194,-88,-89,-72,-147,-91
151,215,64,-183,44,140,-196,-91,-96,-79,-151,-93
150,212,62,-181,44,137,-196,-93,-100,-85,-153,-94
148,209,61,-178,44,135,-196,-94,-104,-93,-157,-96
147,206,59,-176,44,133,-194,-93,-107,-99,-160,-97
146,206,60,-176,43,133,-193,-94,-111,-107,-165,-100
145,206,61,-175,42,134,-192,-95,-117,-115,-170,-104
144,205,61,-174,42,133,-191,-97,-122,-121,-175,-109
141,202,61,-171,40,132,-192,-98,-128,-130,-180,-112
139,198,59,-168,40,129,-193,-100,-137,-140,-185,-114
137,192,55,-164,41,124,-193,-102,-145,-149,-190,-116
134,186,52,-160,41,119,-194,-103,-152,-158,-195,-118
132,181,49,-156,42,115,-194,-104,-159,-168,-201,-121
130,177,47,-153,42,112,-192,-105,-164,-176,-206,-124
129,174,45,-151,42,110,-190,-106,-170,-185,-211,-127
127,172,45,-149,41,109,-188,-105,-173,-191,-215,-130
126,171,45,-148,41,108,-187,-106,-178,-199,-219,-135
124,170,46,-147,39,108,-185,-106,-183,-205,-223,-139
123,167,44,-145,40,106,-185,-106,-189,-211,-228,-141
121,162,41,-141,40,102,-186,-108,-195,-218,-232,-143
119,157,38,-138,41,98,-187,-110,-202,-226,-237,-146
117,152,35,-134,41,94,-187,-111,-208,-233,-240,-147
115,147,32,-131,42,90,-186,-111,-213,-239,-244,-148
114,144,30,-129,42,87,-185,-111,-216,-244,-247,-151
114,142,28,-128,43,85,-183,-111,-218,-249,-249,-152
114,142,28,-128,43,85,-181,-110,-220,-253,-252,-155
113,143,30,-128,42,87,-179,-110,-222,-257,-255,-157
112,142,30,-127,41,86,-177,-109,-224,-259,-256,-159
111,140,29,-125,41,85,-178,-111,-228,-263,-258,-161
109,137,28,-123,41,83,-180,-112,-233,-267,-262,-163
108,133,25,-120,42,79,-180,-113,-237,-269,-264,-164
107,129,22,-118,43,76,-181,-113,-240,-272,-265,-164
106,126,20,-116,43,73,-181,-114,-243,-275,-267,-165
105,124,19,-114,43,72,-179,-114,-244,-277,-268,-165
106,124,18,-115,44,71,-178,-113,-244,-279,-269,-165
106,125,19,-115,44,72,-176,-113,-244,-281,-271,-167
106,127,21,-116,43,74,-174,-112,-244,-282,-271,-168
105,127,22,-116,42,75,-174,-111,-244,-283,-272,-169
104,127,23,-115,41,75,-175,-111,-247,-284,-273,-170
103,126,23,-114,40,75,-176,-112,-249,-284,-274,-170
103,124,21,-113,41,73,-178,-113,-252,-286,-275,-171
103,120,17,-111,43,69,-179,-114,-255,-288,-277,-171
102,117,15,-109,44,66,-179,-115,-257,-290,-278,-171
102,116,14,-109,44,65,-177,-115,-256,-290,-277,-170
101,116,15,-108,43,66,-175,-114,-254,-290,-277,-170
102,118,16,-110,43,67,-174,-113,-253,-291,-277,-171
102,121,19,-111,42,70,-173,-112,-252,-291,-277,-172
102,123,21,-112,41,72,-173,-113,-253,-292,-277,-173
102,124,22,-113,40,73,-172,-113,-254,-292,-278,-173
101,123,22,-112,40,73,-173,-113,-255,-292,-278,-173
100,121,21,-110,40,71,-175,-114,-257,-293,-279,-173
99,118,19,-108,40,69,-176,-114,-259,-295,-279,-172
99,115,16,-107,42,66,-176,-114,-259,-296,-279,-172
99,114,15,-106,42,65,-175,-114,-258,-297,-279,-172
100,116,16,-108,42,66,-174,-114,-257,-297,-280,-171
100,119,19,-109,41,69,-173,-113,-256,-297,-279,-172
101,122,21,-111,40,72,-172,-112,-255,-296,-279,-173
101,124,23,-112,39,74,-172,-113,-254,-296,-279,-173
101,125,24,-113,39,75,-171,-113,-254,-295,-279,-173
101,124,23,-112,39,74,-174,-113,-256,-295,-280,-173
100,122,22,-111,39,72,-175,-114,-258,-296,-280,-172
99,120,21,-109,39,71,-176,-115,-259,-297,-280,-171
99,118,19,-108,40,69,-176,-115,-259,-297,-280,-170
100,117,17,-108,42,67,-175,-114,-258,-297,-279,-170
101,119,18,-110,42,69,-174,-114,-257,-297,-279,-170
101,121,20,-111,41,71,-173,-112,-255,-296,-278,-170
101,123,22,-112,40,73,-171,-110,-252,-295,-276,-170
101,125,24,-113,39,75,-171,-111,-252,-295,-277,-171
100,126,26,-113,37,76,-171,-112,-252,-295,-277,-171
99,126,27,-112,36,77,-173,-113,-253,-295,-278,-171
99,124,25,-111,37,75,-174,-113,-254,-295,-278,-169
99,122,23,-110,38,73,-175,-113,-256,-295,-278,-168
99,120,21,-109,39,71,-176,-114,-257,-296,-279,-168
100,119,19,-109,41,69,-175,-114,-257,-296,-278,-168
101,120,19,-110,41,70,-174,-112,-255,-295,-277,-167
101,123,22,-112,40,73,-172,-111,-253,-294,-275,-167
102,125,23,-113,40,74,-171,-109,-250,-293,-274,-168
102,127,25,-114,39,76,-171,-111,-249,-292,-274,-169
102,129,27,-115,38,78,-173,-112,-251,-293,-275,-170
101,129,28,-115,37,79,-174,-112,-252,-293,-275,-169
101,127,26,-114,38,77,-177,-114,-255,-295,-276,-169
100,124,24,-112,38,74,-177,-114,-255,-296,-276,-167
100,121,21,-110,40,71,-177,-114,-256,-296,-276,-166
101,121,20,-111,41,71,-177,-114,-257,-298,-276,-166
101,122,21,-111,40,72,-175,-113,-255,-297,-275,-166
102,125,23,-113,40,74,-174,-112,-253,-297,-274,-166
102,127,25,-114,39,76,-173,-111,-251,-296,-273,-166
103,129,26,-116,39,78,-173,-111,-250,-295,-273,-167
103,131,28,-117,38,80,-175,-112,-251,-296,-274,-167
102,131,29,-116,37,80,-175,-113,-253,-295,-274,-167
101,128,27,-114,37,78,-176,-114,-254,-297,-274,-166
101,125,24,-113,39,75,-177,-114,-256,-298,-275,-166
101,122,21,-111,40,72,-177,-113,-257,-298,-275,-164
102,122,20,-112,41,71,-177,-113,-256,-298,-274,-164
102,123,21,-112,41,72,-176,-112,-255,-298,-274,-164
102,125,23,-113,40,74,-174,-111,-253,-297,-273,-164
103,127,24,-115,40,76,-172,-111,-251,-296,-272,-164
103,129,26,-116,39,78,-172,-111,-250,-295,-272,-165
103,130,27,-116,38,79,-173,-111,-251,-295,-271,-165
102,129,27,-115,38,78,-175,-113,-253,-297,-273,-166
101,127,26,-114,38,77,-176,-114,-255,-298,-274,-166
101,124,23,-112,39,74,-178,-114,-257,-299,-274,-165
101,122,21,-111,40,72,-178,-114,-258,-299,-274,-164
102,121,19,-111,42,70,-177,-114,-257,-299,-274,-164
102,122,20,-112,41,71,-176,-113,-255,-299,-273,-164
103,124,21,-113,41,73,-174,-113,-255,-298,-273,-165
103,126,23,-114,40,75,-173,-112,-254,-298,-273,-166
103,128,25,-115,39,77,-172,-112,-253,-297,-273,-166
102,129,27,-115,38,78,-173,-112,-255,-297,-273,-167
102,128,26,-115,38,77,-175,-113,-256,-297,-273,-167
101,125,24,-113,39,75,-176,-114,-258,-299,-274,-166
100,122,22,-111,39,72,-177,-116,-260,-301,-274,-165
99,119,20,-109,40,70,-176,-115,-260,-301,-274,-164
99,118,19,-108,40,69,-176,-115,-259,-301,-274,-165
100,119,19,-109,41,69,-175,-114,-259,-301,-275,-166
101,121,20,-111,41,71,-174,-114,-258,-301,-275,-166
102,124,22,-113,40,73,-174,-113,-258,-301,-275,-167
102,126,24,-114,39,75,-174,-112,-257,-301,-275,-168
102,126,24,-114,39,75,-173,-113,-258,-301,-275,-169
101,124,23,-112,39,74,-174,-114,-259,-301,-275,-168
101,122,21,-111,40,72,-176,-115,-261,-301,-275,-168
99,119,20,-109,40,70,-176,-115,-262,-302,-275,-167
98,116,18,-107,40,67,-176,-115,-264,-304,-276,-166
99,115,16,-107,42,66,-176,-115,-264,-304,-276,-166
100,117,17,-108,42,67,-175,-114,-263,-303,-276,-166
101,119,18,-110,42,69,-174,-114,-262,-303,-276,-167
101,121,20,-111,41,71,-173,-113,-261,-303,-276,-169
101,123,22,-112,40,73,-172,-111,-260,-301,-275,-169
100,124,24,-112,38,74,-172,-112,-261,-301,-276,-169
99,122,23,-110,38,73,-174,-114,-263,-302,-276,-169
98,119,21,-108,39,70,-176,-115,-266,-304,-277,-168
98,117,19,-107,40,68,-176,-116,-267,-305,-278,-168
98,114,16,-106,41,65,-176,-116,-267,-305,-278,-167
98,112,14,-105,42,63,-175,-116,-267,-306,-278,-167
99,114,15,-106,42,65,-175,-116,-266,-307,-278,-168
99,116,17,-107,41,67,-173,-114,-264,-305,-277,-168
100,118,18,-109,41,68,-172,-114,-263,-305,-277,-168
100,120,20,-110,40,70,-172,-114,-263,-304,-277,-169
100,120,20,-110,40,70,-172,-113,-264,-305,-277,-169
99,119,20,-109,40,70,-172,-114,-266,-305,-277,-169
