I,II,III,aVR,aVL,aVF,V1,V2,V3,V4,V5,V6
-60,54,114,3,-87,84,179,-30,99,93,30,38
-60,54,114,3,-87,84,179,-30,100,93,31,38
-61,54,115,4,-88,85,179,-31,99,93,31,38
-61,53,114,4,-87,84,180,-33,98,92,31,38
-62,53,115,5,-88,84,181,-35,98,92,31,39
-62,52,114,5,-88,83,181,-37,97,92,31,38
-62,52,114,5,-88,83,180,-38,97,91,31,38
-62,52,114,5,-88,83,179,-38,97,91,31,38
-61,52,113,5,-87,83,179,-37,98,91,31,38
-61,53,114,4,-87,84,177,-36,98,90,30,38
-60,53,113,4,-86,83,177,-33,99,90,31,38
-60,54,114,3,-87,84,177,-31,100,90,31,38
-60,54,114,3,-87,84,177,-30,100,90,31,38
-60,54,114,3,-87,84,177,-29,100,90,31,38
-60,54,114,3,-87,84,177,-28,98,89,30,38
-60,53,113,4,-86,83,176,-29,97,89,30,38
-61,52,113,5,-87,83,177,-29,98,90,30,38
-61,52,113,5,-87,83,176,-30,97,89,30,38
-61,52,113,5,-87,83,176,-31,97,89,30,38
-61,52,113,5,-87,83,176,-32,96,88,30,38
-61,51,112,5,-86,82,176,-33,94,87,29,38
-61,51,112,5,-86,82,177,-34,92,87,29,38
-61,51,112,5,-86,82,177,-37,89,86,29,37
-61,51,112,5,-86,82,177,-39,87,86,29,37
-61,50,111,6,-86,81,177,-40,86,86,28,36
-61,50,111,6,-86,81,177,-40,85,85,28,36
-61,50,111,6,-86,81,177,-40,86,85,28,36
-60,50,110,5,-85,80,176,-39,88,84,27,35
-61,49,110,6,-85,80,177,-37,90,85,28,35
-61,49,110,6,-85,80,177,-38,89,84,27,35
-62,49,111,7,-86,80,177,-39,88,84,27,35
-63,48,111,8,-87,80,178,-39,86,86,27,36
-63,48,111,8,-87,80,178,-39,85,85,27,35
-64,48,112,8,-88,80,177,-39,84,85,27,35
-64,47,111,9,-87,79,176,-39,85,85,26,34
-63,47,110,8,-86,79,175,-36,86,85,26,34
-63,47,110,8,-86,79,175,-35,87,85,26,34
-63,46,109,9,-86,78,175,-34,88,85,25,34
-63,46,109,9,-86,78,175,-35,89,84,25,34
-62,46,108,8,-85,77,175,-36,88,84,25,34
-62,46,108,8,-85,77,177,-39,87,83,25,33
-62,47,109,8,-85,78,178,-42,86,83,24,33
-62,47,109,8,-85,78,179,-43,85,82,24,33
-62,47,109,8,-85,78,178,-44,84,82,24,33
-62,47,109,8,-85,78,178,-44,84,81,23,32
-62,47,109,8,-85,78,177,-44,83,81,23,32
-63,46,109,9,-86,78,177,-42,83,81,23,32
-63,46,109,9,-86,78,176,-40,83,80,22,32
-63,46,109,9,-86,78,175,-40,82,80,22,31
-64,45,109,10,-86,77,175,-40,83,80,22,32
-64,45,109,10,-86,77,175,-40,83,80,22,31
-64,45,109,10,-86,77,175,-41,82,79,21,31
-65,44,109,11,-87,77,175,-40,82,80,22,31
-65,44,109,11,-87,77,175,-41,82,79,21,31
-65,44,109,11,-87,77,176,-41,82,79,20,31
-65,44,109,11,-87,77,176,-41,83,79,20,31
-65,44,109,11,-87,77,176,-41,83,79,20,30
-65,44,109,11,-87,77,176,-42,83,78,21,30
-65,44,109,11,-87,77,176,-41,82,78,21,30
-65,43,108,11,-86,76,176,-40,81,78,21,30
-65,43,108,11,-86,76,175,-40,79,78,21,30
-65,43,108,11,-86,76,175,-40,78,78,21,30
-65,42,107,12,-86,75,175,-41,77,77,21,30
-65,42,107,12,-86,75,175,-41,77,77,21,30
-65,42,107,12,-86,75,175,-42,77,77,20,29
-65,42,107,12,-86,75,176,-43,78,76,20,29
-65,42,107,12,-86,75,176,-44,79,76,20,29
-65,42,107,12,-86,75,177,-44,79,76,20,29
-65,42,107,12,-86,75,177,-44,79,76,20,29
-65,42,107,12,-86,75,177,-43,79,76,20,29
-65,42,107,12,-86,75,177,-42,79,76,20,29
-65,42,107,12,-86,75,176,-41,78,76,20,29
-65,42,107,12,-86,75,176,-41,77,75,20,28
-65,42,107,12,-86,75,176,-43,76,75,20,28
-65,41,106,12,-85,74,177,-45,76,76,21,29
-65,41,106,12,-85,74,178,-47,76,76,21,29
-64,41,105,12,-84,73,178,-48,75,75,20,28
-64,41,105,12,-84,73,177,-48,76,75,20,28
-63,41,104,11,-83,73,176,-47,77,75,20,28
-63,41,104,11,-83,73,175,-45,77,75,21,28
-62,41,103,11,-82,72,174,-43,77,75,21,28
-63,41,104,11,-83,73,173,-42,78,75,20,29
-63,41,104,11,-83,73,173,-42,78,75,20,29
-64,41,105,12,-84,73,173,-43,77,75,19,28
-65,40,105,13,-85,73,174,-42,78,75,20,29
-65,40,105,13,-85,73,175,-43,78,75,19,28
-66,39,105,14,-85,72,177,-42,78,75,20,28
-66,39,105,14,-85,72,176,-40,77,74,19,28
-66,39,105,14,-85,72,176,-40,77,74,18,27
-66,39,105,14,-85,72,176,-42,76,74,18,27
-65,39,104,13,-84,72,175,-47,74,74,17,26
-65,39,104,13,-84,72,176,-51,74,74,17,26
-65,39,104,13,-84,72,176,-52,74,74,17,27
-65,39,104,13,-84,72,176,-51,75,74,18,27
-64,39,103,13,-83,71,175,-50,75,74,18,27
-64,39,103,13,-83,71,174,-47,76,74,18,27
-64,39,103,13,-83,71,174,-41,76,74,18,27
-64,39,103,13,-83,71,173,-37,76,74,17,27
-64,39,103,13,-83,71,173,-36,76,74,17,27
-64,39,103,13,-83,71,173,-40,75,74,17,27
-64,39,103,13,-83,71,174,-43,75,74,17,27
-64,39,103,13,-83,71,174,-46,75,74,16,27
-64,38,102,13,-83,70,174,-47,74,74,16,27
-64,38,102,13,-83,70,174,-47,74,73,15,27
-64,37,101,14,-82,69,175,-47,74,74,16,27
-64,36,100,14,-82,68,174,-46,73,73,15,27
-64,36,100,14,-82,68,174,-44,73,73,15,26
-64,36,100,14,-82,68,173,-43,73,72,14,26
-65,36,101,15,-83,69,173,-43,73,73,14,26
-65,36,101,15,-83,69,172,-43,74,73,15,27
-65,36,101,15,-83,69,173,-42,75,73,15,27
-65,37,102,14,-83,70,173,-42,76,73,15,28
-65,37,102,14,-83,70,173,-42,76,73,15,27
-65,37,102,14,-83,70,173,-42,76,72,15,27
-65,36,101,15,-83,69,173,-43,76,72,14,27
-65,36,101,15,-83,69,173,-45,75,71,14,26
-66,36,102,15,-84,69,174,-45,75,71,15,27
-66,36,102,15,-84,69,174,-45,74,71,15,27
-66,36,102,15,-84,69,174,-45,73,72,15,27
-66,36,102,15,-84,69,174,-45,73,72,16,27
-66,36,102,15,-84,69,175,-44,73,73,17,27
-66,37,103,15,-84,70,174,-44,72,73,16,27
-66,37,103,15,-84,70,174,-44,72,74,17,27
-66,36,102,15,-84,69,175,-42,74,74,18,28
-65,37,102,14,-83,70,174,-43,74,74,17,27
-64,37,101,14,-82,69,173,-43,75,74,17,27
-64,37,101,14,-82,69,173,-43,76,74,17,27
-64,37,101,14,-82,69,173,-43,76,73,17,27
-64,37,101,14,-82,69,173,-43,76,73,17,27
-64,37,101,14,-82,69,173,-43,76,72,17,27
-64,37,101,14,-82,69,174,-44,74,72,17,27
-64,37,101,14,-82,69,174,-46,72,71,17,27
-65,36,101,15,-83,69,174,-48,71,71,17,27
-65,36,101,15,-83,69,174,-48,71,70,17,27
-65,35,100,15,-82,68,175,-47,72,71,18,28
-65,35,100,15,-82,68,174,-47,73,71,18,28
-65,34,99,16,-82,67,174,-46,74,71,18,27
-66,34,100,16,-83,67,174,-44,76,72,17,27
-66,34,100,16,-83,67,173,-42,76,72,17,27
-65,34,99,16,-82,67,173,-41,76,72,17,27
-65,35,100,15,-82,68,173,-42,76,72,17,27
-65,35,100,15,-82,68,173,-41,75,72,17,27
-64,35,99,15,-81,67,173,-42,73,71,16,27
-64,35,99,15,-81,67,173,-43,72,71,15,27
-64,35,99,15,-81,67,174,-43,72,71,15,26
-64,34,98,15,-81,66,175,-43,73,72,16,27
-64,34,98,15,-81,66,176,-44,74,73,16,27
-64,34,98,15,-81,66,176,-47,74,73,16,27
-64,35,99,15,-81,67,175,-50,73,72,15,26
-63,35,98,14,-80,67,175,-51,74,72,15,26
-63,36,99,14,-81,68,174,-50,75,72,15,26
-63,36,99,14,-81,68,174,-48,75,72,14,26
-63,36,99,14,-81,68,173,-45,76,72,14,26
-63,36,99,14,-81,68,173,-42,77,71,13,26
-63,36,99,14,-81,68,172,-39,77,71,13,26
-63,36,99,14,-81,68,173,-37,77,70,13,26
-63,36,99,14,-81,68,173,-38,76,70,13,26
-64,36,100,14,-82,68,173,-39,74,70,13,26
-64,36,100,14,-82,68,173,-40,72,71,13,26
-64,36,100,14,-82,68,172,-42,71,71,13,26
-64,36,100,14,-82,68,172,-44,72,71,13,26
-64,35,99,15,-81,67,172,-45,72,71,13,26
-64,35,99,15,-81,67,172,-45,73,71,13,26
-64,34,98,15,-81,66,172,-44,75,72,13,27
-63,34,97,15,-80,66,171,-44,75,70,12,25
-64,34,98,15,-81,66,172,-43,76,71,13,27
-64,34,98,15,-81,66,172,-42,76,71,13,26
-65,34,99,16,-82,67,172,-40,76,71,13,26
-65,34,99,16,-82,67,172,-40,76,71,14,26
-65,34,99,16,-82,67,172,-41,76,71,14,27
-65,34,99,16,-82,67,172,-42,76,71,14,27
-65,34,99,16,-82,67,172,-42,75,70,14,27
-65,35,100,15,-82,68,172,-42,74,70,14,26
-65,35,100,15,-82,68,172,-42,73,69,13,26
-65,34,99,16,-82,67,173,-42,71,69,13,25
-65,34,99,16,-82,67,173,-43,70,68,13,25
-64,34,98,15,-81,66,174,-45,70,68,13,24
-64,35,99,15,-81,67,173,-48,69,67,12,23
-64,35,99,15,-81,67,173,-48,70,67,13,23
-63,35,98,14,-80,67,173,-48,71,68,14,23
-63,36,99,14,-81,68,173,-47,72,68,15,24
-62,36,98,13,-80,67,171,-46,71,68,14,23
-62,36,98,13,-80,67,171,-43,71,69,15,23
-62,36,98,13,-80,67,172,-40,70,69,16,23
-62,36,98,13,-80,67,173,-40,70,69,16,24
-62,36,98,13,-80,67,173,-41,70,70,16,24
-63,36,99,14,-81,68,175,-42,72,71,18,25
-64,35,99,15,-81,67,175,-43,74,72,18,25
-64,35,99,15,-81,67,173,-43,75,72,17,25
-64,34,98,15,-81,66,173,-42,76,72,18,26
-64,34,98,15,-81,66,172,-41,77,72,18,26
-64,35,99,15,-81,67,171,-41,76,71,17,25
-63,35,98,14,-80,67,171,-41,76,71,17,25
-63,36,99,14,-81,68,172,-42,76,71,17,25
-63,36,99,14,-81,68,174,-43,76,71,17,26
-63,37,100,13,-81,69,173,-44,75,70,16,25
-63,37,100,13,-81,69,173,-44,75,71,16,25
-63,37,100,13,-81,69,172,-44,74,70,15,25
-63,37,100,13,-81,69,172,-42,73,70,15,25
-64,37,101,14,-82,69,173,-39,74,71,16,26
-64,37,101,14,-82,69,174,-39,72,71,15,26
-63,37,100,13,-81,69,173,-44,70,69,14,25
-63,37,100,13,-81,69,174,-47,69,69,13,24
-63,37,100,13,-81,69,174,-49,68,69,13,24
-64,36,100,14,-82,68,175,-48,69,70,13,25
-64,36,100,14,-82,68,174,-47,70,70,13,25
-64,36,100,14,-82,68,173,-46,71,70,13,25
-64,36,100,14,-82,68,173,-43,72,70,12,25
-64,36,100,14,-82,68,172,-40,74,70,12,25
-64,36,100,14,-82,68,172,-39,75,70,12,25
-64,36,100,14,-82,68,172,-40,75,70,12,25
-64,36,100,14,-82,68,172,-41,74,70,11,25
-64,36,100,14,-82,68,172,-43,73,70,11,25
-64,37,101,14,-82,69,172,-44,72,70,12,25
-63,37,100,13,-81,69,171,-44,70,69,11,24
-63,37,100,13,-81,69,171,-44,70,69,11,25
-63,37,100,13,-81,69,172,-42,70,69,11,25
-62,37,99,13,-80,68,172,-42,71,70,11,25
-63,38,101,13,-82,70,172,-42,72,70,12,25
-63,38,101,13,-82,70,172,-43,73,70,12,25
-63,38,101,13,-82,70,173,-44,73,70,12,25
-63,38,101,13,-82,70,172,-44,74,70,12,25
-63,38,101,13,-82,70,172,-43,74,70,12,25
-63,38,101,13,-82,70,172,-43,73,70,12,25
-63,38,101,13,-82,70,172,-41,72,69,12,24
-64,37,101,14,-82,69,172,-40,73,70,12,25
-64,36,100,14,-82,68,172,-41,72,69,12,24
-64,36,100,14,-82,68,172,-44,72,68,12,24
-64,36,100,14,-82,68,173,-45,71,68,12,24
-63,37,100,13,-81,69,173,-45,70,67,12,23
-63,37,100,13,-81,69,173,-44,70,68,12,24
-62,38,100,12,-81,69,173,-44,70,69,14,25
-62,38,100,12,-81,69,173,-43,71,70,14,26
-61,38,99,12,-80,69,172,-42,70,69,14,25
-62,38,100,12,-81,69,173,-40,72,70,15,26
-62,38,100,12,-81,69,173,-40,73,70,15,25
-61,38,99,12,-80,69,172,-41,74,70,13,24
-61,38,99,12,-80,69,172,-41,74,70,13,23
-61,38,99,12,-80,69,172,-41,74,70,13,23
-62,38,100,12,-81,69,173,-41,75,71,14,24
-61,39,100,11,-80,70,172,-42,74,70,14,24
-62,39,101,12,-81,70,171,-42,73,70,14,24
-62,39,101,12,-81,70,171,-42,72,70,13,24
-62,39,101,12,-81,70,170,-42,71,69,13,23
-62,39,101,12,-81,70,170,-41,72,69,13,23
-62,39,101,12,-81,70,169,-40,72,68,12,23
-63,39,102,12,-82,71,170,-40,74,68,13,23
-62,39,101,12,-81,70,169,-42,73,67,11,22
-62,39,101,12,-81,70,170,-43,73,67,12,23
-62,40,102,11,-82,71,170,-42,73,67,12,23
-62,40,102,11,-82,71,170,-42,72,68,12,23
-62,40,102,11,-82,71,171,-42,71,68,12,24
-62,40,102,11,-82,71,171,-42,71,68,11,24
-62,40,102,11,-82,71,171,-44,70,68,11,23
-62,40,102,11,-82,71,172,-46,70,68,11,23
-62,39,101,12,-81,70,171,-46,71,68,10,22
-62,39,101,12,-81,70,171,-47,71,68,10,22
-62,39,101,12,-81,70,170,-47,71,68,10,21
-62,39,101,12,-81,70,169,-47,72,68,9,21
-62,38,100,12,-81,69,170,-45,73,69,10,22
-62,39,101,12,-81,70,168,-44,72,68,9,21
-62,39,101,12,-81,70,168,-44,72,68,9,22
-62,39,101,12,-81,70,169,-43,71,68,10,23
-62,40,102,11,-82,71,169,-41,70,68,10,23
-61,40,101,11,-81,71,171,-41,70,68,11,24
-60,41,101,10,-80,71,171,-44,69,68,10,24
-60,41,101,10,-80,71,171,-46,69,69,11,24
-60,41,101,10,-80,71,171,-47,70,70,11,24
-60,41,101,10,-80,71,171,-46,71,70,11,24
-60,41,101,10,-80,71,171,-45,72,70,11,24
-60,41,101,10,-80,71,170,-43,74,71,11,24
-60,41,101,10,-80,71,169,-40,75,71,11,24
-61,41,102,10,-81,72,168,-37,75,71,11,24
-61,41,102,10,-81,72,168,-36,75,70,10,23
-60,41,101,10,-80,71,168,-37,75,70,11,23
-60,41,101,10,-80,71,169,-39,75,70,11,23
-60,41,101,10,-80,71,169,-41,74,69,11,23
-59,41,100,9,-79,71,169,-43,74,69,11,23
-59,42,101,9,-80,72,170,-45,72,68,10,22
-59,42,101,9,-80,72,171,-45,72,68,10,22
-59,43,102,8,-80,73,171,-45,71,69,10,23
-59,43,102,8,-80,73,170,-45,71,68,10,23
-60,43,103,9,-81,73,170,-46,70,68,10,23
-60,43,103,9,-81,73,170,-47,70,68,10,22
-61,43,104,9,-82,74,170,-46,71,68,10,23
-61,42,103,10,-82,73,169,-46,71,68,10,23
-61,42,103,10,-82,73,169,-46,71,68,10,23
-61,42,103,10,-82,73,168,-45,70,68,10,22
-60,42,102,9,-81,72,168,-43,70,69,11,22
-60,42,102,9,-81,72,168,-42,70,69,11,23
-60,43,103,9,-81,73,167,-42,70,68,11,22
-60,42,102,9,-81,72,168,-42,72,69,12,23
-60,42,102,9,-81,72,168,-42,73,69,11,23
-60,42,102,9,-81,72,168,-42,73,69,11,22
-59,41,100,9,-79,71,167,-43,74,69,10,22
-60,41,101,10,-80,71,167,-43,74,68,10,21
-60,41,101,10,-80,71,167,-44,73,68,9,21
-60,41,101,10,-80,71,167,-45,73,68,9,21
-60,41,101,10,-80,71,167,-45,72,68,9,21
-60,42,102,9,-81,72,167,-46,72,69,9,21
-60,42,102,9,-81,72,168,-46,72,69,10,21
"
		-60","
		43","
		103","
		9","
		-81","
		73","
		168","
		-46","
		71","
		68","
		9","
		21"
-60,44,104,8,-82,74,168,-46,71,68,10,22
-60,44,104,8,-82,74,169,-45,71,68,10,22
-60,45,105,8,-82,75,169,-45,71,68,10,22
-60,45,105,8,-82,75,169,-45,71,68,10,23
-60,45,105,8,-82,75,169,-44,71,68,10,22
-60,45,105,8,-82,75,168,-44,72,69,10,22
-60,45,105,8,-82,75,168,-44,72,69,10,23
-60,45,105,8,-82,75,167,-43,73,69,10,22
-60,45,105,8,-82,75,167,-42,73,69,10,22
-60,45,105,8,-82,75,166,-40,73,69,10,22
-60,45,105,8,-82,75,166,-39,73,69,10,22
-60,45,105,8,-82,75,166,-39,73,68,10,22
-60,44,104,8,-82,74,167,-39,73,68,9,21
-60,44,104,8,-82,74,167,-40,73,68,9,21
-60,44,104,8,-82,74,167,-42,72,67,9,20
-61,44,105,9,-83,75,167,-43,72,67,8,20
-61,44,105,9,-83,75,167,-45,71,67,8,20
-61,44,105,9,-83,75,167,-47,70,67,8,21
-61,44,105,9,-83,75,167,-49,69,67,8,21
-61,44,105,9,-83,75,168,-49,69,67,8,21
-60,45,105,8,-82,75,168,-47,69,66,8,21
-60,45,105,8,-82,75,167,-45,69,65,8,21
-61,44,105,9,-83,75,166,-45,69,65,7,21
-61,44,105,9,-83,75,165,-44,69,65,7,21
-61,45,106,8,-83,76,165,-44,69,65,7,21
-61,45,106,8,-83,76,165,-43,69,65,8,21
-60,46,106,7,-83,76,164,-43,69,65,8,21
-59,47,106,6,-82,77,165,-43,70,67,9,22
-58,47,105,6,-81,76,165,-44,70,66,8,21
-58,47,105,6,-81,76,165,-42,70,67,9,22
-57,47,104,5,-80,76,166,-40,71,67,9,22
-57,47,104,5,-80,76,165,-40,71,67,9,22
-58,47,105,6,-81,76,165,-41,71,66,8,21
-58,46,104,6,-81,75,165,-42,72,66,8,22
-59,46,105,7,-82,76,164,-42,72,66,8,21
-59,46,105,7,-82,76,164,-42,72,66,8,21
-60,46,106,7,-83,76,164,-43,72,66,8,20
-59,46,105,7,-82,76,164,-43,72,65,8,20
-59,46,105,7,-82,76,164,-43,71,65,8,21
-58,46,104,6,-81,75,165,-43,71,65,8,21
-58,47,105,6,-81,76,164,-45,69,64,7,21
-58,47,105,6,-81,76,165,-45,68,65,7,21
-58,48,106,5,-82,77,165,-45,67,65,7,21
-58,48,106,5,-82,77,165,-44,66,65,8,21
-59,49,108,5,-83,79,165,-44,67,66,8,21
-59,49,108,5,-83,79,165,-42,68,67,8,21
-59,49,108,5,-83,79,165,-41,69,67,8,21
-59,49,108,5,-83,79,164,-40,70,68,8,21
-59,49,108,5,-83,79,164,-40,70,69,8,21
-59,48,107,6,-83,78,163,-41,71,69,8,21
-60,48,108,6,-84,78,165,-42,72,70,9,22
-60,48,108,6,-84,78,165,-43,72,69,9,22
-59,48,107,6,-83,78,164,-45,71,68,8,21
-59,48,107,6,-83,78,164,-45,71,68,7,21
-59,49,108,5,-83,79,165,-45,71,67,7,21
-59,50,109,5,-84,80,166,-44,71,67,7,21
-59,50,109,5,-84,80,165,-43,70,67,7,21
-59,50,109,5,-84,80,165,-46,69,67,7,21
-59,50,109,5,-84,80,165,-48,68,67,7,21
-60,49,109,6,-84,79,165,-48,67,67,7,21
-60,49,109,6,-84,79,164,-47,68,67,7,21
-59,49,108,5,-83,79,163,-46,69,68,7,21
-58,49,107,5,-82,78,162,-44,70,68,7,21
-58,50,108,4,-83,79,160,-41,70,67,6,20
-57,50,107,4,-82,79,160,-36,72,68,6,20
-57,51,108,3,-82,80,161,-35,73,68,7,21
-56,52,108,2,-82,80,161,-37,72,68,6,21
-56,53,109,2,-82,81,162,-39,72,68,7,21
-55,54,109,1,-82,82,164,-41,71,68,7,22
-55,55,110,0,-82,83,166,-40,72,69,8,23
-54,57,111,-1,-82,84,165,-40,73,70,8,22
-54,58,112,-2,-83,85,166,-39,74,71,8,23
-54,59,113,-2,-83,86,167,-38,76,72,9,24
-54,60,114,-3,-84,87,167,-37,76,72,9,24
-54,61,115,-3,-84,88,168,-35,76,73,9,24
-54,62,116,-4,-85,89,169,-34,76,73,10,25
-54,62,116,-4,-85,89,169,-36,75,73,10,25
-55,62,117,-3,-86,90,169,-38,74,73,10,24
-55,62,117,-3,-86,90,169,-40,74,73,10,24
-55,62,117,-3,-86,90,169,-41,75,73,11,25
-56,63,119,-3,-87,91,169,-40,75,73,11,25
-56,63,119,-3,-87,91,169,-39,77,73,11,25
-55,64,119,-4,-87,92,169,-38,77,73,10,25
-55,65,120,-5,-87,93,170,-35,78,73,11,25
-54,66,120,-6,-87,93,171,-33,79,73,10,25
-54,67,121,-6,-87,94,172,-31,79,74,11,26
-53,68,121,-7,-87,95,172,-32,79,74,11,26
-53,69,122,-8,-87,96,172,-33,79,75,12,27
-53,70,123,-8,-88,97,173,-34,79,76,13,28
-53,71,124,-9,-88,98,172,-34,80,76,13,29
-52,72,124,-10,-88,98,171,-34,81,77,15,30
-52,73,125,-10,-88,99,170,-35,81,77,15,30
-51,75,126,-12,-88,101,169,-36,82,77,15,31
-50,76,126,-13,-88,101,168,-36,82,78,16,32
-50,77,127,-13,-88,102,166,-38,80,78,16,32
-50,78,128,-14,-89,103,165,-40,79,78,16,33
-50,79,129,-14,-89,104,162,-43,76,79,17,33
-51,78,129,-13,-90,104,160,-46,74,78,16,32
-52,77,129,-12,-90,103,159,-47,72,78,16,32
-53,76,129,-11,-91,103,158,-46,73,78,17,33
-53,74,127,-10,-90,101,157,-46,72,77,16,32
-53,73,126,-10,-89,100,157,-45,73,77,16,32
-53,71,124,-9,-88,98,156,-46,73,76,15,31
-53,70,123,-8,-88,97,158,-45,75,77,16,32
-52,70,122,-9,-87,96,156,-47,74,76,15,32
-51,70,121,-9,-86,96,156,-48,74,76,15,32
-51,69,120,-9,-85,95,155,-48,74,77,15,32
-49,70,119,-10,-84,95,154,-48,73,77,15,32
-48,70,118,-11,-83,94,155,-46,74,78,16,33
-47,71,118,-12,-82,95,155,-44,73,77,15,32
-47,71,118,-12,-82,95,157,-42,74,77,15,32
-47,70,117,-11,-82,94,159,-41,74,78,16,33
-48,69,117,-10,-82,93,160,-42,73,77,15,31
-49,67,116,-9,-82,92,160,-42,72,76,13,30
-50,64,114,-7,-82,89,160,-42,71,75,13,30
-51,61,112,-5,-81,87,160,-44,69,73,11,28
-52,59,111,-3,-81,85,160,-45,67,71,9,26
-54,56,110,-1,-82,83,161,-44,66,70,8,25
-55,55,110,0,-82,83,161,-46,64,67,6,23
-55,53,108,1,-81,81,161,-46,63,66,4,21
-56,53,109,2,-82,81,163,-46,64,66,5,21
-56,53,109,2,-82,81,163,-47,63,66,4,21
-56,53,109,2,-82,81,164,-47,63,66,4,21
-55,53,108,1,-81,81,163,-47,62,65,3,20
-55,53,108,1,-81,81,162,-46,62,66,3,20
-54,54,108,0,-81,81,162,-45,61,66,4,21
-54,54,108,0,-81,81,162,-46,61,67,4,21
-54,54,108,0,-81,81,163,-50,61,68,5,22
-54,54,108,0,-81,81,163,-52,61,68,5,22
-54,54,108,0,-81,81,163,-53,62,68,6,22
-54,54,108,0,-81,81,162,-52,63,68,6,22
-54,53,107,1,-80,80,161,-51,65,68,5,22
-55,52,107,2,-81,80,162,-47,67,68,6,23
-55,52,107,2,-81,80,161,-43,68,68,5,22
-55,52,107,2,-81,80,161,-39,68,68,5,22
-55,53,108,1,-81,81,160,-40,66,67,4,21
-54,53,107,1,-80,80,161,-42,66,67,4,21
-54,53,107,1,-80,80,161,-43,65,67,5,21
-54,53,107,1,-80,80,161,-44,65,67,5,21
-54,53,107,1,-80,80,160,-44,65,67,5,22
-54,53,107,1,-80,80,160,-44,65,67,5,22
-54,53,107,1,-80,80,160,-44,65,67,5,22
-54,53,107,1,-80,80,160,-44,65,67,5,22
-54,53,107,1,-80,80,161,-43,66,67,5,22
-54,53,107,1,-80,80,162,-42,65,68,5,22
-53,54,107,0,-80,81,164,-40,66,68,6,22
-53,55,108,-1,-80,82,164,-39,67,69,7,23
-53,55,108,-1,-80,82,163,-40,67,69,7,23
-53,55,108,-1,-80,82,162,-42,67,68,7,23
-53,56,109,-1,-81,83,161,-45,66,67,5,22
-53,56,109,-1,-81,83,161,-47,66,66,5,21
-54,55,109,0,-81,82,161,-47,66,67,6,22
-54,55,109,0,-81,82,161,-48,65,66,5,22
-54,55,109,0,-81,82,161,-47,65,66,5,22
-54,55,109,0,-81,82,162,-46,65,67,6,22
-54,55,109,0,-81,82,161,-43,64,67,6,22
-54,55,109,0,-81,82,161,-41,65,67,6,23
-54,55,109,0,-81,82,161,-40,66,68,7,23
-53,55,108,-1,-80,82,161,-40,67,68,7,24
-53,55,108,-1,-80,82,162,-40,68,69,7,24
-52,56,108,-2,-80,82,161,-40,68,68,7,23
-52,56,108,-2,-80,82,162,-41,69,69,7,23
-52,57,109,-2,-80,83,162,-42,70,69,7,23
-52,57,109,-2,-80,83,164,-43,70,68,6,23
-53,58,111,-2,-82,85,166,-43,70,68,6,22
-54,58,112,-2,-83,85,168,-41,71,67,4,21
-55,57,112,-1,-83,85,173,-35,74,66,2,19
-55,55,110,0,-82,83,177,-27,77,64,-2,15
-55,51,106,2,-80,79,184,-14,83,63,-6,12
-55,46,101,5,-78,74,192,2,93,62,-10,8
-54,42,96,6,-75,69,200,18,102,61,-14,5
-53,38,91,8,-72,65,208,33,112,62,-16,2
-52,36,88,8,-70,62,214,45,120,64,-18,0
-49,37,86,6,-67,62,217,55,128,68,-16,1
-46,42,88,2,-67,65,216,63,138,76,-11,5
-40,50,90,-5,-65,70,212,68,149,89,-1,12
-33,61,94,-14,-63,78,206,71,162,106,12,21
-25,77,102,-26,-63,90,198,73,182,130,29,34
-15,96,111,-40,-63,104,187,75,205,160,51,50
-4,121,125,-58,-64,123,173,71,229,196,78,69
5,151,146,-78,-70,149,158,56,248,236,109,92
13,185,172,-99,-79,179,142,30,257,278,143,117
20,221,201,-120,-90,211,123,-8,255,324,179,144
26,257,231,-141,-102,244,100,-55,241,374,219,173
33,290,257,-161,-112,274,75,-112,219,432,260,201
38,317,279,-177,-120,298,50,-175,190,493,299,227
41,336,295,-188,-127,316,29,-232,156,551,335,250
39,345,306,-192,-133,326,12,-277,115,596,360,265
34,342,308,-188,-137,325,4,-307,71,623,374,273
24,332,308,-178,-142,320,3,-325,24,623,374,272
10,316,306,-163,-148,311,9,-332,-25,591,359,264
-6,294,300,-144,-153,297,19,-329,-72,524,329,246
-23,268,291,-122,-157,280,33,-315,-112,433,289,224
-37,240,277,-101,-157,259,44,-299,-141,330,243,198
-48,214,262,-83,-155,238,52,-282,-156,233,196,171
-57,188,245,-65,-151,217,61,-261,-157,152,153,146
-64,162,226,-49,-145,194,70,-238,-149,89,114,120
-68,136,204,-34,-136,170,80,-214,-137,49,81,97
-70,114,184,-22,-127,149,89,-191,-123,30,56,77
-71,97,168,-13,-119,133,100,-172,-106,26,38,61
-72,82,154,-5,-113,118,111,-158,-90,28,24,48
-73,70,143,2,-108,107,120,-147,-77,28,13,37
-74,61,135,7,-104,98,127,-139,-64,28,6,29
-74,55,129,10,-101,92,133,-132,-52,29,2,24
-74,50,124,12,-99,87,138,-125,-37,33,0,21
-73,48,121,13,-97,85,141,-117,-24,36,-1,19
-70,48,118,11,-94,83,143,-108,-11,41,-1,18
-68,49,117,10,-92,83,145,-97,3,46,1,19
-65,52,117,7,-91,85,147,-86,16,51,3,21
-62,56,118,3,-90,87,150,-75,28,57,7,23
-59,61,120,-1,-89,91,152,-65,40,63,10,26
-57,66,123,-4,-90,95,154,-58,50,66,11,27
-55,69,124,-7,-89,97,158,-53,60,70,13,29
-53,71,124,-9,-88,98,160,-50,66,71,13,28
-52,72,124,-10,-88,98,163,-45,73,73,14,29
-52,71,123,-9,-87,97,164,-40,78,74,14,29
-52,70,122,-9,-87,96,165,-36,81,73,13,28
-52,69,121,-8,-86,95,166,-31,84,74,12,28
-52,68,120,-8,-86,94,166,-26,85,73,11,28
-52,68,120,-8,-86,94,165,-23,85,73,10,27
-52,68,120,-8,-86,94,165,-22,85,73,10,26
-52,68,120,-8,-86,94,165,-24,85,73,10,27
-52,69,121,-8,-86,95,165,-27,85,73,10,27
-52,69,121,-8,-86,95,166,-30,85,73,10,27
-51,69,120,-9,-85,95,165,-32,85,72,9,26
-51,69,120,-9,-85,95,165,-31,86,72,9,26
-51,68,119,-8,-85,94,167,-29,88,74,10,27
-51,69,120,-9,-85,95,166,-28,88,73,9,26
-50,69,119,-9,-84,94,166,-25,89,74,9,27
-50,69,119,-9,-84,94,167,-21,90,76,10,27
-49,70,119,-10,-84,95,166,-21,90,76,11,27
-49,71,120,-11,-84,96,166,-21,90,78,12,28
-49,72,121,-11,-85,97,166,-22,91,78,13,29
-48,72,120,-12,-84,96,166,-24,90,78,12,28
-48,72,120,-12,-84,96,167,-25,91,78,13,28
-48,72,120,-12,-84,96,167,-26,91,77,13,28
-48,72,120,-12,-84,96,167,-26,91,77,13,28
-48,71,119,-11,-83,95,167,-25,93,78,14,28
-48,71,119,-11,-83,95,167,-25,94,78,14,28
-48,71,119,-11,-83,95,166,-23,95,78,14,28
-48,71,119,-11,-83,95,166,-22,96,79,15,28
-47,72,119,-12,-83,96,165,-22,96,79,15,28
-47,72,119,-12,-83,96,165,-22,97,80,15,29
-47,72,119,-12,-83,96,166,-21,98,80,16,29
-47,72,119,-12,-83,96,166,-21,99,80,16,29
-47,72,119,-12,-83,96,166,-21,99,80,16,29
-48,72,120,-12,-84,96,166,-21,99,80,16,29
-48,72,120,-12,-84,96,165,-22,99,80,15,28
-48,72,120,-12,-84,96,165,-21,99,80,15,28
-48,72,120,-12,-84,96,165,-21,99,80,15,29
-48,73,121,-12,-84,97,166,-21,98,81,16,29
-47,74,121,-13,-84,98,166,-24,97,81,17,30
-45,76,121,-15,-83,99,166,-26,96,81,17,30
-44,77,121,-16,-82,99,167,-28,95,81,17,30
-43,78,121,-17,-82,100,168,-26,96,82,19,31
-43,78,121,-17,-82,100,168,-24,97,84,19,32
-43,78,121,-17,-82,100,168,-21,100,84,19,32
-43,78,121,-17,-82,100,169,-18,102,85,19,31
-44,78,122,-17,-83,100,168,-15,103,85,18,31
-44,78,122,-17,-83,100,167,-13,104,86,18,32
-44,77,121,-16,-82,99,166,-14,105,87,18,32
-44,78,122,-17,-83,100,166,-17,104,87,19,32
-44,78,122,-17,-83,100,165,-20,102,87,19,33
-44,78,122,-17,-83,100,165,-21,102,88,19,33
-44,78,122,-17,-83,100,164,-20,102,88,19,33
-44,78,122,-17,-83,100,164,-19,103,88,19,33
-45,77,122,-16,-83,100,165,-17,105,89,20,34
-45,77,122,-16,-83,100,165,-14,106,90,20,34
-45,78,123,-16,-84,101,164,-12,106,89,19,33
-44,79,123,-17,-83,101,165,-10,107,90,19,34
-44,79,123,-17,-83,101,165,-10,108,92,20,35
-43,80,123,-18,-83,102,165,-12,107,92,20,35
-43,81,124,-19,-83,103,166,-13,107,93,21,36
-42,82,124,-20,-83,103,166,-17,108,93,21,36
-43,82,125,-19,-84,104,166,-19,108,93,22,36
-43,81,124,-19,-83,103,167,-17,110,94,23,37
-43,81,124,-19,-83,103,167,-16,111,94,23,37
-43,81,124,-19,-83,103,167,-15,112,95,23,37
-42,81,123,-19,-82,102,166,-13,111,94,23,36
-42,81,123,-19,-82,102,165,-9,112,95,24,36
-41,82,123,-20,-82,103,164,-5,113,97,25,37
-40,83,123,-21,-81,103,163,-6,113,98,26,37
-40,84,124,-22,-82,104,163,-5,115,99,27,38
-39,85,124,-23,-81,105,163,-6,115,100,27,38
-39,86,125,-23,-82,106,163,-5,116,100,28,38
-39,86,125,-23,-82,106,164,-5,117,101,29,38
-39,87,126,-24,-82,107,165,-6,117,100,28,37
-39,87,126,-24,-82,107,166,-6,117,101,29,37
-39,87,126,-24,-82,107,166,-7,118,101,29,37
-39,88,127,-24,-83,108,165,-6,118,102,30,38
-38,88,126,-25,-82,107,165,-5,120,104,31,39
-38,89,127,-25,-82,108,164,-5,120,104,31,39
-37,89,126,-26,-81,108,165,-3,122,105,32,40
-37,90,127,-26,-82,109,165,-1,124,106,34,40
-37,90,127,-26,-82,109,166,-1,126,108,35,41
-37,90,127,-26,-82,109,166,0,128,108,35,41
-36,91,127,-27,-81,109,166,0,129,109,35,41
-36,92,128,-28,-82,110,167,1,132,111,37,42
-36,92,128,-28,-82,110,168,3,133,113,38,43
"
		-36","
		93","
		129","
		-28","
		-82","
		111","
		167","
		3","
		134","
		114","
		38","
		42"
-36,94,130,-29,-83,112,166,5,136,116,40,43
-36,95,131,-29,-83,113,166,7,137,118,41,44
-36,95,131,-29,-83,113,165,9,139,120,42,45
-36,96,132,-30,-84,114,163,10,139,120,42,45
-35,96,131,-30,-83,114,164,12,140,122,43,46
-34,97,131,-31,-82,114,163,14,141,123,43,46
-34,98,132,-32,-83,115,165,16,144,124,44,47
-33,99,132,-33,-82,116,165,17,146,125,44,46
-33,100,133,-33,-83,117,166,18,148,128,45,48
-32,101,133,-34,-82,117,167,19,150,129,46,48
-32,102,134,-35,-83,118,167,21,154,132,47,49
-31,103,134,-36,-82,119,167,24,156,133,47,50
-30,104,134,-37,-82,119,166,28,159,136,49,51
-29,105,134,-38,-81,120,165,31,161,138,49,52
-29,106,135,-38,-82,121,165,33,163,140,50,53
-29,107,136,-39,-82,122,164,32,164,140,50,52
-29,107,136,-39,-82,122,165,32,167,142,51,53
-28,108,136,-40,-82,122,166,32,169,145,52,54
-27,110,137,-41,-82,124,166,33,171,146,53,54
-26,111,137,-42,-81,124,167,35,173,149,54,55
-25,113,138,-44,-81,126,167,38,176,152,56,56
-24,114,138,-45,-81,126,166,42,178,155,57,57
-23,116,139,-46,-81,128,166,46,181,158,59,58
-22,118,140,-48,-81,129,165,48,184,161,60,59
-21,119,140,-49,-80,130,166,50,188,165,63,61
-20,121,141,-50,-80,131,166,51,191,167,64,62
-19,122,141,-51,-80,132,166,52,194,170,65,62
-19,123,142,-52,-80,133,167,54,197,174,67,64
-18,125,143,-53,-80,134,166,55,199,176,69,65
-17,126,143,-54,-80,135,166,55,202,179,70,65
-16,128,144,-56,-80,136,165,57,203,183,72,66
-15,130,145,-57,-80,138,164,58,204,187,74,67
-14,131,145,-58,-79,138,163,59,206,190,76,68
-13,133,146,-60,-79,140,163,60,209,194,78,70
-12,134,146,-61,-79,140,164,63,213,199,81,72
-11,135,146,-62,-78,141,163,64,217,203,83,73
-11,137,148,-63,-79,143,162,66,222,206,84,73
-10,138,148,-64,-79,143,163,69,227,210,87,75
-9,140,149,-65,-79,145,163,71,230,213,89,76
-7,143,150,-68,-78,147,162,70,232,216,90,77
-5,145,150,-70,-77,148,162,69,235,220,93,79
-4,148,152,-72,-78,150,161,67,235,223,94,79
-4,149,153,-72,-78,151,161,69,238,228,97,82
-4,151,155,-73,-79,153,160,70,240,232,99,83
-4,152,156,-74,-80,154,160,71,243,236,102,85
-4,152,156,-74,-80,154,160,69,245,240,104,86
-4,153,157,-74,-80,155,158,68,248,243,106,87
-4,154,158,-75,-81,156,157,68,249,246,108,88
-2,156,158,-77,-80,157,156,68,251,249,110,89
0,158,158,-79,-79,158,155,68,253,253,113,90
2,160,158,-81,-78,159,153,69,255,255,114,91
3,162,159,-82,-78,161,152,72,257,257,116,92
3,164,161,-83,-79,163,152,75,259,260,119,94
4,165,161,-84,-78,163,151,74,260,262,120,94
4,166,162,-85,-79,164,150,71,260,264,121,95
4,166,162,-85,-79,164,150,67,260,265,122,96
4,167,163,-85,-79,165,148,63,259,265,122,96
4,167,163,-85,-79,165,147,60,258,266,122,96
4,167,163,-85,-79,165,147,57,257,267,123,96
4,167,163,-85,-79,165,145,55,255,267,123,96
4,167,163,-85,-79,165,144,53,253,267,123,96
4,166,162,-85,-79,164,143,50,251,267,123,96
3,166,163,-84,-80,165,142,46,248,265,121,95
3,165,162,-84,-79,164,141,41,245,263,120,94
2,163,161,-82,-79,162,141,37,243,260,118,93
0,162,162,-81,-81,162,141,34,239,256,115,91
-1,160,161,-79,-81,161,141,30,236,252,113,90
-2,158,160,-78,-81,159,141,26,232,247,110,88
-4,155,159,-75,-81,157,142,23,229,243,108,87
-5,153,158,-74,-81,156,142,19,224,237,105,85
-6,151,157,-72,-81,154,142,16,219,232,102,83
-7,149,156,-71,-81,153,141,14,213,226,98,81
-9,146,155,-68,-82,151,142,12,208,221,95,79
-10,143,153,-66,-81,148,142,9,202,214,91,77
-11,140,151,-64,-81,146,141,7,196,207,87,74
-14,136,150,-61,-82,143,143,6,192,202,84,72
-15,133,148,-59,-81,141,143,2,185,194,79,69
-17,129,146,-56,-81,138,145,0,181,188,76,66
-19,126,145,-53,-82,136,146,-3,176,182,72,64
-21,123,144,-51,-82,134,146,-8,170,175,68,61
-23,121,144,-49,-83,133,147,-11,164,170,65,60
-24,118,142,-47,-83,130,147,-14,158,163,61,57
-26,115,141,-44,-83,128,148,-14,153,158,59,55
-28,112,140,-42,-84,126,146,-15,147,153,55,52
-29,109,138,-40,-83,124,146,-15,143,148,53,51
-31,106,137,-37,-84,122,146,-17,138,142,49,48
-33,103,136,-35,-84,120,148,-19,133,137,46,46
-34,100,134,-33,-84,117,148,-22,129,132,43,44
-36,98,134,-31,-85,116,150,-25,126,129,41,43
-37,96,133,-29,-85,115,151,-27,123,125,39,42
-37,95,132,-29,-84,114,152,-28,118,120,36,40
-38,94,132,-28,-85,113,153,-26,115,118,34,39
-38,93,131,-27,-84,112,152,-24,112,114,32,37
-39,91,130,-26,-84,111,152,-22,110,112,31,36
-39,90,129,-25,-84,110,152,-23,106,108,29,35
-40,88,128,-24,-84,108,152,-23,105,105,28,34
-41,86,127,-22,-84,107,152,-24,103,102,26,33
-42,84,126,-21,-84,105,153,-25,101,99,25,32
-44,83,127,-19,-85,105,153,-26,99,97,23,31
-44,82,126,-19,-85,104,154,-26,96,95,23,30
-45,81,126,-18,-85,104,154,-27,93,93,21,29
-46,79,125,-16,-85,102,154,-28,90,91,20,29
-46,79,125,-16,-85,102,154,-31,87,89,19,28
-46,78,124,-16,-85,101,155,-32,87,89,19,28
-46,77,123,-15,-84,100,155,-34,85,87,18,27
-47,76,123,-14,-85,100,157,-33,85,87,18,27
-47,76,123,-14,-85,100,157,-32,85,87,18,27
-47,76,123,-14,-85,100,157,-31,85,86,17,27
-48,75,123,-13,-85,99,157,-30,85,85,16,26
-48,75,123,-13,-85,99,157,-29,85,84,16,26
-48,76,124,-14,-86,100,158,-28,85,84,16,26
-48,76,124,-14,-86,100,158,-28,85,83,16,26
-48,76,124,-14,-86,100,158,-29,84,82,15,26
-47,76,123,-14,-85,100,159,-29,84,82,15,27
-47,76,123,-14,-85,100,160,-28,84,82,15,27
-46,76,122,-15,-84,99,159,-28,83,80,14,26
-47,76,123,-14,-85,100,160,-27,83,81,15,26
-48,75,123,-13,-85,99,159,-27,83,81,14,26
-48,75,123,-13,-85,99,158,-27,84,81,14,26
-49,75,124,-13,-86,100,158,-26,86,82,15,27
-49,75,124,-13,-86,100,158,-26,86,82,14,27
-50,76,126,-13,-88,101,157,-27,86,82,14,27
-50,76,126,-13,-88,101,157,-26,86,81,15,26
-50,76,126,-13,-88,101,158,-26,86,81,15,26
-49,76,125,-13,-87,101,158,-26,85,80,14,25
-49,76,125,-13,-87,101,158,-26,85,79,13,25
-49,76,125,-13,-87,101,159,-28,84,78,13,25
-49,76,125,-13,-87,101,159,-30,84,78,13,25
-49,76,125,-13,-87,101,159,-31,83,77,13,25
-49,77,126,-14,-87,102,159,-32,82,77,13,25
-49,77,126,-14,-87,102,159,-32,81,78,13,25
-50,77,127,-13,-88,102,158,-31,80,78,13,25
-50,77,127,-13,-88,102,158,-29,80,78,14,25
-50,78,128,-14,-89,103,158,-26,81,79,14,25
-49,78,127,-14,-88,103,158,-27,82,79,14,26
-49,78,127,-14,-88,103,158,-29,82,79,13,25
-50,78,128,-14,-89,103,158,-30,83,78,13,25
-50,78,128,-14,-89,103,158,-30,83,78,13,25
-49,78,127,-14,-88,103,158,-29,83,78,13,25
-49,78,127,-14,-88,103,157,-28,83,77,13,25
-50,78,128,-14,-89,103,156,-26,82,77,13,25
-49,79,128,-15,-88,104,155,-23,81,77,13,24
-48,79,127,-15,-87,103,155,-21,82,77,13,25
-48,80,128,-16,-88,104,155,-21,82,77,14,25
-48,80,128,-16,-88,104,155,-21,82,77,14,25
-48,80,128,-16,-88,104,156,-21,83,76,14,25
-48,80,128,-16,-88,104,157,-22,83,76,14,25
-49,80,129,-15,-89,105,157,-23,83,75,14,25
-49,79,128,-15,-88,104,157,-25,82,75,14,24
-49,79,128,-15,-88,104,156,-28,81,74,14,24
-49,79,128,-15,-88,104,156,-29,81,75,15,24
-49,80,129,-15,-89,105,156,-29,79,74,15,24
-49,79,128,-15,-88,104,156,-28,78,74,14,24
-49,79,128,-15,-88,104,155,-28,78,74,14,24
-49,79,128,-15,-88,104,156,-26,79,74,14,24
-49,79,128,-15,-88,104,156,-24,80,74,14,23
-49,79,128,-15,-88,104,155,-24,82,74,14,23
-49,79,128,-15,-88,104,154,-24,84,74,14,23
-49,79,128,-15,-88,104,154,-25,84,74,14,23
-49,79,128,-15,-88,104,154,-25,84,74,14,23
-49,80,129,-15,-89,105,154,-25,84,74,15,24
-48,81,129,-16,-88,105,153,-26,82,73,15,24
-48,81,129,-16,-88,105,154,-26,81,72,15,24
-48,80,128,-16,-88,104,155,-26,81,72,16,24
-48,80,128,-16,-88,104,156,-26,80,72,15,24
-47,80,127,-16,-87,104,155,-28,79,70,14,23
-47,79,126,-16,-86,103,156,-28,80,70,15,24
-47,79,126,-16,-86,103,157,-28,80,70,15,24
-47,79,126,-16,-86,103,157,-28,80,70,15,24
-47,79,126,-16,-86,103,158,-28,79,70,15,24
-47,79,126,-16,-86,103,158,-28,77,70,15,24
-47,79,126,-16,-86,103,158,-28,76,69,15,24
-47,79,126,-16,-86,103,158,-29,74,69,14,24
-47,79,126,-16,-86,103,157,-31,73,68,14,24
-48,79,127,-15,-87,103,157,-34,71,67,13,23
-48,78,126,-15,-87,102,156,-37,71,66,13,22
-49,78,127,-14,-88,103,157,-38,72,67,13,23
-49,77,126,-14,-87,102,156,-38,72,67,13,22
-49,77,126,-14,-87,102,156,-37,73,66,13,22
-49,77,126,-14,-87,102,155,-35,73,66,12,21
-49,77,126,-14,-87,102,154,-33,72,66,12,21
-49,76,125,-13,-87,101,154,-30,72,65,11,21
-49,76,125,-13,-87,101,153,-29,71,65,11,21
-49,76,125,-13,-87,101,153,-31,69,64,10,20
-49,75,124,-13,-86,100,154,-32,69,64,10,21
-50,75,125,-12,-87,100,154,-34,67,62,9,20
-50,74,124,-12,-87,99,153,-36,66,61,9,19
-50,74,124,-12,-87,99,153,-37,66,61,9,19
-50,74,124,-12,-87,99,152,-37,66,61,8,19
-50,73,123,-11,-86,98,153,-34,67,62,9,20
-50,73,123,-11,-86,98,152,-33,67,62,9,20
-50,74,124,-12,-87,99,151,-33,67,61,9,19
-50,74,124,-12,-87,99,152,-33,67,61,9,19
-51,74,125,-11,-88,100,153,-32,68,62,9,19
-51,73,124,-11,-87,99,154,-32,67,62,8,19
-51,73,124,-11,-87,99,154,-32,67,61,8,18
-52,72,124,-10,-88,98,154,-32,68,62,8,18
-52,72,124,-10,-88,98,154,-33,67,61,7,18
-53,71,124,-9,-88,98,154,-36,66,60,7,17
-53,70,123,-8,-88,97,155,-37,66,61,7,18
-54,70,124,-8,-89,97,155,-38,65,61,7,17
-54,70,124,-8,-89,97,154,-39,65,61,7,17
-54,70,124,-8,-89,97,154,-39,64,61,7,17
-53,70,123,-8,-88,97,153,-38,64,61,7,17
-53,71,124,-9,-88,98,152,-37,63,59,6,16
-52,71,123,-9,-87,97,153,-35,63,59,6,16
-51,72,123,-10,-87,98,153,-34,63,59,5,16
-50,72,122,-11,-86,97,154,-35,63,58,5,16
-50,72,122,-11,-86,97,155,-36,64,58,5,16
-49,73,122,-12,-85,98,155,-39,63,58,4,15
-49,73,122,-12,-85,98,156,-39,62,58,5,16
-50,73,123,-11,-86,98,156,-39,62,59,6,16
-50,72,122,-11,-86,97,155,-40,61,59,5,16
-51,72,123,-10,-87,98,155,-41,60,59,5,16
-51,72,123,-10,-87,98,154,-42,60,59,5,16
-52,71,123,-9,-87,97,154,-40,61,59,5,16
-52,70,122,-9,-87,96,153,-38,61,58,5,15
-52,70,122,-9,-87,96,153,-38,62,58,4,15
-53,69,122,-8,-87,96,154,-38,63,59,5,15
-53,69,122,-8,-87,96,154,-39,63,59,4,15
-53,69,122,-8,-87,96,154,-39,62,58,4,15
-53,69,122,-8,-87,96,153,-40,62,58,4,15
-53,69,122,-8,-87,96,152,-40,61,58,4,14
-53,69,122,-8,-87,96,152,-40,61,58,4,14
-52,70,122,-9,-87,96,152,-41,59,56,3,14
-52,70,122,-9,-87,96,152,-41,58,55,2,13
-52,69,121,-8,-86,95,154,-40,58,56,3,14
-52,69,121,-8,-86,95,155,-42,58,55,3,14
-52,69,121,-8,-86,95,155,-44,57,55,2,13
-53,68,121,-7,-87,95,155,-45,57,55,2,13
-54,68,122,-7,-88,95,154,-43,58,56,3,13
-54,67,121,-6,-87,94,152,-41,59,56,3,13
-54,67,121,-6,-87,94,151,-39,59,57,3,13
-54,67,121,-6,-87,94,150,-37,60,57,3,13
-54,67,121,-6,-87,94,150,-36,61,57,3,13
-54,67,121,-6,-87,94,150,-37,62,56,2,13
-54,67,121,-6,-87,94,151,-39,62,56,2,12
-54,66,120,-6,-87,93,152,-41,62,55,1,12
-55,66,121,-5,-88,94,153,-41,63,56,2,13
-55,67,122,-6,-88,95,152,-43,61,55,1,12
-55,67,122,-6,-88,95,153,-43,61,55,1,13
-54,67,121,-6,-87,94,153,-43,60,55,2,13
-54,67,121,-6,-87,94,152,-42,59,55,2,13
-53,67,120,-7,-86,94,152,-40,58,54,1,13
-53,67,120,-7,-86,94,152,-39,57,53,1,12
-53,66,119,-6,-86,93,152,-40,56,52,0,12
-54,66,120,-6,-87,93,152,-43,55,52,-1,11
-55,65,120,-5,-87,93,153,-45,55,52,0,11
-56,65,121,-4,-88,93,153,-48,55,52,-1,11
-56,65,121,-4,-88,93,153,-49,56,52,0,11
-56,66,122,-5,-89,94,153,-48,57,53,0,11
-55,67,122,-6,-88,95,151,-47,57,53,0,11
-54,67,121,-6,-87,94,151,-44,59,53,1,12
-54,68,122,-7,-88,95,151,-40,60,54,2,13
-53,68,121,-7,-87,95,150,-37,60,53,1,12
-53,68,121,-7,-87,95,150,-36,61,53,1,12
-53,68,121,-7,-87,95,150,-37,61,53,1,12
-53,67,120,-7,-86,94,152,-38,61,53,1,12
-53,67,120,-7,-86,94,152,-39,60,53,1,12
-53,67,120,-7,-86,94,152,-39,60,53,1,12
-53,67,120,-7,-86,94,151,-40,58,53,1,12
-53,67,120,-7,-86,94,150,-41,57,52,2,12
-53,67,120,-7,-86,94,150,-42,56,52,2,12
-54,67,121,-6,-87,94,150,-43,55,52,2,12
-54,67,121,-6,-87,94,151,-45,55,52,2,11
-54,67,121,-6,-87,94,152,-45,55,52,2,11
-54,67,121,-6,-87,94,153,-46,55,52,2,11
-53,66,119,-6,-86,93,154,-45,56,52,2,11
-53,66,119,-6,-86,93,154,-44,57,52,2,11
-53,66,119,-6,-86,93,153,-43,57,53,2,11
-53,66,119,-6,-86,93,152,-42,57,53,2,11
-53,66,119,-6,-86,93,151,-41,57,53,2,11
-53,65,118,-6,-85,92,149,-41,57,52,2,11
-54,65,119,-5,-86,92,150,-40,58,53,2,11
-54,64,118,-5,-86,91,150,-41,58,53,2,11
-54,64,118,-5,-86,91,150,-41,57,52,1,11
-54,64,118,-5,-86,91,150,-41,56,52,1,11
-54,63,117,-4,-85,90,151,-42,56,51,0,10
-54,63,117,-4,-85,90,152,-42,56,51,0,10
-55,64,119,-4,-87,92,152,-44,55,51,0,10
-55,64,119,-4,-87,92,152,-45,55,51,0,10
-54,64,118,-5,-86,91,152,-46,55,52,1,11
-54,65,119,-5,-86,92,152,-46,55,52,1,11
-54,65,119,-5,-86,92,152,-44,56,52,1,11
-53,66,119,-6,-86,93,151,-43,56,51,1,10
-53,66,119,-6,-86,93,152,-41,57,51,0,10
-53,65,118,-6,-85,92,153,-38,57,51,0,10
-53,65,118,-6,-85,92,153,-37,57,50,0,9
-53,65,118,-6,-85,92,153,-39,57,50,-1,9
-53,64,117,-5,-85,91,154,-44,57,50,0,10
-54,64,118,-5,-86,91,153,-49,55,50,-1,9
-54,64,118,-5,-86,91,152,-51,54,50,-1,9
-54,64,118,-5,-86,91,151,-51,53,51,-1,9
-55,65,120,-5,-87,93,151,-50,53,52,0,10
-55,65,120,-5,-87,93,150,-47,54,52,0,10
-55,65,120,-5,-87,93,151,-41,54,52,0,10
-55,65,120,-5,-87,93,152,-36,56,52,0,10
-55,65,120,-5,-87,93,152,-34,57,52,0,10
-54,65,119,-5,-86,92,152,-35,58,52,0,10
"
		-54","
		65","
		119","
		-5","
		-86","
		92","
		152","
		-38","
		57","
		51","
		0","
		10"
-54,65,119,-5,-86,92,152,-40,57,51,0,10
-54,65,119,-5,-86,92,152,-42,56,51,0,10
-54,65,119,-5,-86,92,152,-43,55,52,0,10
-55,65,120,-5,-87,93,152,-45,55,52,0,10
-55,64,119,-4,-87,92,152,-45,55,52,0,9
-55,64,119,-4,-87,92,152,-44,55,52,0,9
-55,64,119,-4,-87,92,152,-42,55,52,0,9
-55,64,119,-4,-87,92,152,-41,56,52,-1,9
-55,64,119,-4,-87,92,152,-42,56,51,-1,9
-55,64,119,-4,-87,92,152,-42,56,51,-1,9
-54,65,119,-5,-86,92,152,-41,56,52,0,9
-54,65,119,-5,-86,92,152,-41,56,52,0,9
-54,65,119,-5,-86,92,152,-41,56,52,0,9
-54,65,119,-5,-86,92,152,-41,55,52,0,9
-54,65,119,-5,-86,92,152,-41,55,52,0,9
-55,64,119,-4,-87,92,152,-40,54,52,-1,8
-55,64,119,-4,-87,92,152,-40,53,52,-1,8
-55,64,119,-4,-87,92,152,-40,53,52,-1,8
-56,64,120,-4,-88,92,153,-39,54,52,0,9
-56,63,119,-3,-87,91,153,-40,54,52,0,9
-55,63,118,-4,-86,91,153,-42,54,52,0,9
-54,63,117,-4,-85,90,152,-43,53,51,-1,8
-54,64,118,-5,-86,91,152,-44,53,51,-1,8
-53,64,117,-5,-85,91,153,-44,54,52,-1,8
-53,65,118,-6,-85,92,153,-46,54,51,-2,8
-53,65,118,-6,-85,92,153,-45,55,51,-2,8
-53,65,118,-6,-85,92,153,-43,56,52,-1,8
-54,65,119,-5,-86,92,153,-41,58,53,0,9
-54,65,119,-5,-86,92,152,-40,58,53,0,9
-55,65,120,-5,-87,93,152,-38,57,52,0,9
-55,65,120,-5,-87,93,151,-36,55,52,0,9
-56,65,121,-4,-88,93,151,-35,54,52,0,9
-55,66,121,-5,-88,94,153,-38,54,52,0,9
-55,66,121,-5,-88,94,154,-42,54,52,0,9
-55,66,121,-5,-88,94,154,-45,54,52,-1,9
-55,65,120,-5,-87,93,154,-46,55,52,-1,8
-55,65,120,-5,-87,93,154,-46,55,52,-2,8
-55,64,119,-4,-87,92,153,-46,55,51,-2,7
-55,64,119,-4,-87,92,152,-44,55,50,-3,7
-55,64,119,-4,-87,92,151,-41,54,50,-3,6
-55,64,119,-4,-87,92,151,-38,54,50,-3,6
-56,65,121,-4,-88,93,151,-38,54,50,-3,7
-55,66,121,-5,-88,94,152,-40,54,50,-2,7
-55,66,121,-5,-88,94,153,-42,53,50,-2,8
-54,66,120,-6,-87,93,152,-44,52,49,-3,7
-54,66,120,-6,-87,93,152,-45,52,50,-3,7
-54,66,120,-6,-87,93,152,-46,51,50,-3,7
-54,66,120,-6,-87,93,152,-46,51,50,-4,7
-54,65,119,-5,-86,92,153,-45,53,52,-3,8
-54,65,119,-5,-86,92,152,-44,53,51,-3,7
-55,64,119,-4,-87,92,151,-43,53,51,-3,6
-55,64,119,-4,-87,92,151,-41,54,51,-3,7
-55,65,120,-5,-87,93,151,-40,55,52,-3,7
-55,65,120,-5,-87,93,151,-41,56,52,-3,7
-55,65,120,-5,-87,93,152,-41,55,51,-3,7
-55,66,121,-5,-88,94,153,-41,55,51,-3,7
-54,66,120,-6,-87,93,152,-43,54,50,-4,6
-54,66,120,-6,-87,93,153,-44,54,50,-5,6
-54,66,120,-6,-87,93,153,-45,53,50,-5,5
-54,66,120,-6,-87,93,153,-45,52,50,-6,5
-54,66,120,-6,-87,93,152,-44,52,50,-6,5
-55,66,121,-5,-88,94,151,-43,53,50,-5,6
-55,66,121,-5,-88,94,150,-42,53,50,-5,5
-56,66,122,-5,-89,94,149,-42,53,50,-6,5
-56,65,121,-4,-88,93,150,-43,53,50,-6,5
-55,65,120,-5,-87,93,150,-43,53,49,-6,5
-54,66,120,-6,-87,93,150,-44,52,48,-7,4
-54,66,120,-6,-87,93,152,-45,52,48,-7,4
-53,66,119,-6,-86,93,154,-47,52,49,-7,4
-54,66,120,-6,-87,93,154,-49,52,49,-6,4
-54,67,121,-6,-87,94,153,-50,52,50,-6,4
-55,67,122,-6,-88,95,153,-49,52,50,-6,4
-56,67,123,-5,-89,95,153,-47,52,52,-4,6
-57,67,124,-5,-90,96,152,-44,52,52,-4,6
-57,67,124,-5,-90,96,152,-41,53,52,-4,6
-56,67,123,-5,-89,95,152,-37,53,51,-4,6
-55,67,122,-6,-88,95,150,-36,53,50,-5,5
-55,67,122,-6,-88,95,150,-36,54,50,-6,5
-55,67,122,-6,-88,95,151,-38,55,50,-6,5
-54,67,121,-6,-87,94,151,-41,54,50,-6,5
-55,66,121,-5,-88,94,152,-43,53,50,-5,5
-55,66,121,-5,-88,94,152,-43,52,50,-6,5
-55,67,122,-6,-88,95,151,-44,50,49,-6,5
-55,67,122,-6,-88,95,151,-45,50,49,-6,5
-55,66,121,-5,-88,94,152,-44,51,50,-5,5
-55,66,121,-5,-88,94,152,-44,53,50,-5,5
-55,66,121,-5,-88,94,153,-45,54,51,-5,5
-55,66,121,-5,-88,94,152,-46,55,51,-5,5
-55,66,121,-5,-88,94,152,-46,57,51,-5,5
-55,66,121,-5,-88,94,152,-45,57,51,-5,5
-54,66,120,-6,-87,93,151,-43,56,50,-5,4
-54,66,120,-6,-87,93,150,-40,56,49,-5,4
-54,66,120,-6,-87,93,150,-38,56,49,-5,4
-54,66,120,-6,-87,93,151,-37,55,49,-4,4
-54,67,121,-6,-87,94,151,-38,55,48,-4,4
-54,67,121,-6,-87,94,151,-39,54,48,-5,4
-54,66,120,-6,-87,93,151,-41,53,47,-5,4
-55,66,121,-5,-88,94,152,-42,52,48,-5,4
-55,66,121,-5,-88,94,151,-43,51,48,-5,4
-55,66,121,-5,-88,94,151,-43,51,48,-5,4
-55,65,120,-5,-87,93,150,-44,51,48,-5,3
-55,65,120,-5,-87,93,150,-44,52,48,-5,3
-56,66,122,-5,-89,94,151,-43,53,48,-5,3
-56,66,122,-5,-89,94,151,-41,54,48,-5,3
-56,66,122,-5,-89,94,151,-41,54,48,-5,3
-56,66,122,-5,-89,94,150,-41,54,48,-6,3
-55,66,121,-5,-88,94,151,-43,54,48,-6,3
-55,66,121,-5,-88,94,152,-44,53,48,-6,4
-54,66,120,-6,-87,93,151,-46,52,47,-7,3
-55,66,121,-5,-88,94,152,-45,53,48,-6,4
-55,66,121,-5,-88,94,152,-45,53,48,-6,4
-55,66,121,-5,-88,94,153,-44,53,49,-6,4
-55,66,121,-5,-88,94,153,-43,52,49,-5,5
-56,66,122,-5,-89,94,151,-43,52,49,-6,4
-56,66,122,-5,-89,94,151,-42,52,48,-6,4
-57,65,122,-4,-89,94,151,-40,53,49,-6,4
-57,65,122,-4,-89,94,151,-40,53,49,-6,4
-58,64,122,-3,-90,93,150,-40,53,49,-7,3
-58,64,122,-3,-90,93,150,-39,53,49,-8,3
-57,64,121,-3,-89,93,150,-38,54,49,-7,3
-57,65,122,-4,-89,94,151,-38,54,50,-7,4
-55,66,121,-5,-88,94,151,-39,54,50,-7,4
-54,67,121,-6,-87,94,151,-41,53,49,-7,4
-54,68,122,-7,-88,95,152,-40,54,49,-6,5
-53,68,121,-7,-87,95,152,-41,54,49,-7,4
-53,68,121,-7,-87,95,152,-42,54,48,-7,4
-54,68,122,-7,-88,95,153,-41,55,49,-7,5
-54,68,122,-7,-88,95,152,-41,55,48,-7,4
-55,67,122,-6,-88,95,152,-41,54,48,-8,3
-55,67,122,-6,-88,95,151,-41,53,48,-8,3
-54,67,121,-6,-87,94,151,-41,52,48,-8,3
-54,67,121,-6,-87,94,152,-41,51,48,-8,3
-54,67,121,-6,-87,94,152,-41,50,48,-8,3
-54,67,121,-6,-87,94,152,-42,50,48,-7,3
-54,67,121,-6,-87,94,153,-43,50,48,-7,3
-54,67,121,-6,-87,94,153,-46,51,48,-7,3
-54,67,121,-6,-87,94,153,-49,52,48,-7,3
-55,67,122,-6,-88,95,153,-50,52,48,-7,2
-55,67,122,-6,-88,95,153,-49,52,48,-7,2
-55,67,122,-6,-88,95,152,-46,53,48,-7,2
-55,66,121,-5,-88,94,152,-43,55,49,-6,3
-55,66,121,-5,-88,94,152,-41,55,49,-6,3
-55,66,121,-5,-88,94,151,-38,54,49,-7,3
-55,66,121,-5,-88,94,151,-36,54,48,-7,3
-55,66,121,-5,-88,94,151,-36,54,48,-7,3
-55,66,121,-5,-88,94,152,-38,54,48,-7,3
-55,66,121,-5,-88,94,152,-39,54,48,-7,3
-55,67,122,-6,-88,95,151,-40,52,46,-9,1
-54,67,121,-6,-87,94,152,-42,53,46,-8,1
-54,67,121,-6,-87,94,152,-44,53,46,-8,1
-54,67,121,-6,-87,94,152,-46,53,46,-9,1
-54,67,121,-6,-87,94,152,-46,52,46,-9,1
-54,68,122,-7,-88,95,153,-46,52,46,-8,2
-54,68,122,-7,-88,95,153,-46,52,46,-8,2
-55,68,123,-6,-89,96,153,-45,51,46,-8,2
-55,68,123,-6,-89,96,153,-44,50,47,-8,2
-56,68,124,-6,-90,96,153,-43,50,47,-7,2
-56,68,124,-6,-90,96,151,-43,50,47,-8,2
-56,67,123,-5,-89,95,150,-41,51,48,-7,2
-56,66,122,-5,-89,94,149,-41,52,48,-8,2
-57,66,123,-4,-90,95,148,-41,53,48,-8,1
-57,65,122,-4,-89,94,148,-42,55,49,-8,2
-57,65,122,-4,-89,94,148,-43,56,49,-9,2
-57,64,121,-3,-89,93,148,-43,56,48,-9,1
-57,64,121,-3,-89,93,149,-44,55,48,-10,1
-57,65,122,-4,-89,94,150,-43,55,48,-9,1
-56,66,122,-5,-89,94,150,-43,53,47,-10,1
-55,67,122,-6,-88,95,150,-42,52,47,-10,0
-55,67,122,-6,-88,95,150,-43,52,47,-10,1
-55,68,123,-6,-89,96,151,-44,52,48,-10,1
-54,68,122,-7,-88,95,151,-44,52,49,-9,2
-54,68,122,-7,-88,95,151,-44,53,49,-9,2
-55,68,123,-6,-89,96,150,-44,53,49,-9,2
-55,67,122,-6,-88,95,149,-44,53,49,-10,1
-55,67,122,-6,-88,95,149,-42,54,48,-10,1
-56,67,123,-5,-89,95,149,-40,55,49,-9,1
-56,67,123,-5,-89,95,149,-40,55,49,-9,1
-56,66,122,-5,-89,94,150,-41,55,49,-10,1
-56,66,122,-5,-89,94,150,-41,55,49,-10,1
-56,67,123,-5,-89,95,150,-41,55,49,-9,1
-55,67,122,-6,-88,95,150,-40,54,48,-10,1
-55,68,123,-6,-89,96,150,-40,53,48,-10,1
-54,68,122,-7,-88,95,150,-42,53,48,-9,1
-54,69,123,-7,-88,96,149,-47,52,47,-10,0
-53,69,122,-8,-87,96,150,-51,51,47,-10,0
-53,69,122,-8,-87,96,150,-52,51,47,-10,0
-53,69,122,-8,-87,96,150,-52,51,47,-10,-1
-53,69,122,-8,-87,96,149,-50,51,47,-10,-1
-54,69,123,-7,-88,96,149,-48,51,47,-10,-1
-54,69,123,-7,-88,96,149,-43,51,47,-10,-1
-54,68,122,-7,-88,95,150,-38,53,48,-9,0
-54,68,122,-7,-88,95,150,-37,53,48,-9,0
-53,68,121,-7,-87,95,149,-41,52,47,-11,-1
-53,68,121,-7,-87,95,149,-44,52,47,-11,-1
-54,68,122,-7,-88,95,150,-45,53,48,-10,0
-54,68,122,-7,-88,95,150,-46,53,48,-10,-1
-55,68,123,-6,-89,96,149,-46,52,48,-11,-1
-56,67,123,-5,-89,95,150,-44,53,49,-10,0
-57,67,124,-5,-90,96,150,-43,53,49,-10,-1
-57,66,123,-4,-90,95,150,-41,53,49,-10,-1
-58,66,124,-4,-91,95,151,-39,53,50,-9,0
-57,66,123,-4,-90,95,150,-40,52,49,-10,-1
-56,67,123,-5,-89,95,151,-40,52,49,-9,0
-55,68,123,-6,-89,96,150,-42,52,49,-10,-1
-54,68,122,-7,-88,95,151,-43,52,50,-9,0
-53,68,121,-7,-87,95,150,-44,52,50,-10,-1
-53,69,122,-8,-87,96,150,-43,53,50,-10,-1
-53,69,122,-8,-87,96,150,-42,53,51,-10,-1
-53,69,122,-8,-87,96,149,-42,54,51,-11,-1
-53,68,121,-7,-87,95,149,-41,54,51,-11,-2
-54,68,122,-7,-88,95,150,-41,56,52,-10,-1
-54,68,122,-7,-88,95,149,-42,56,52,-11,-1
-55,68,123,-6,-89,96,148,-43,55,51,-11,-1
-55,68,123,-6,-89,96,147,-45,55,51,-12,-1
-55,68,123,-6,-89,96,148,-45,55,51,-12,-1
-55,68,123,-6,-89,96,148,-43,55,51,-11,-1
-55,68,123,-6,-89,96,148,-41,55,51,-11,-1
-54,68,122,-7,-88,95,148,-40,54,51,-11,0
-54,69,123,-7,-88,96,148,-39,53,50,-12,-1
-54,69,123,-7,-88,96,149,-38,52,50,-12,-1
-54,69,123,-7,-88,96,149,-38,51,50,-12,-1
-54,69,123,-7,-88,96,149,-40,50,50,-12,-2
-55,69,124,-7,-89,97,149,-41,51,50,-12,-1
-55,69,124,-7,-89,97,149,-42,51,49,-12,-2
-55,68,123,-6,-89,96,149,-42,51,49,-13,-2
-55,68,123,-6,-89,96,148,-42,52,49,-13,-2
-55,69,124,-7,-89,97,148,-42,52,49,-13,-3
-55,68,123,-6,-89,96,148,-41,52,48,-14,-3
-55,68,123,-6,-89,96,148,-40,52,48,-14,-2
-54,69,123,-7,-88,96,147,-41,52,47,-14,-3
-54,70,124,-8,-89,97,147,-42,51,48,-14,-2
-54,70,124,-8,-89,97,147,-44,51,48,-14,-2
-54,70,124,-8,-89,97,147,-45,51,48,-14,-2
-54,70,124,-8,-89,97,147,-44,51,48,-13,-2
-54,70,124,-8,-89,97,147,-45,51,48,-14,-2
-55,70,125,-7,-90,98,146,-46,50,48,-14,-2
-55,70,125,-7,-90,98,146,-46,50,48,-14,-2
-55,70,125,-7,-90,98,146,-45,50,48,-14,-3
-55,70,125,-7,-90,98,146,-43,50,48,-14,-3
-55,70,125,-7,-90,98,146,-43,51,48,-14,-2
-55,70,125,-7,-90,98,146,-42,51,49,-13,-2
-54,70,124,-8,-89,97,146,-40,51,50,-13,-1
-53,70,123,-8,-88,97,147,-38,51,50,-13,-1
-53,71,124,-9,-88,98,146,-38,50,50,-13,-2
-53,71,124,-9,-88,98,146,-39,50,50,-13,-2
-53,71,124,-9,-88,98,146,-39,50,50,-14,-2
-54,70,124,-8,-89,97,147,-39,51,50,-13,-2
-54,70,124,-8,-89,97,147,-40,52,50,-14,-3
-55,70,125,-7,-90,98,146,-41,52,49,-15,-4
-55,70,125,-7,-90,98,146,-41,52,49,-15,-4
-55,70,125,-7,-90,98,146,-42,52,49,-16,-4
-55,70,125,-7,-90,98,145,-42,52,49,-16,-4
-56,70,126,-7,-91,98,146,-42,53,50,-15,-3
-56,70,126,-7,-91,98,146,-41,53,50,-15,-3
-55,70,125,-7,-90,98,145,-41,53,50,-15,-3
-55,71,126,-8,-90,99,146,-41,53,50,-15,-3
-55,71,126,-8,-90,99,146,-40,54,50,-15,-3
-54,72,126,-9,-90,99,146,-39,53,50,-15,-3
-53,73,126,-10,-89,100,148,-37,53,51,-14,-2
-53,73,126,-10,-89,100,147,-38,53,51,-14,-2
-53,73,126,-10,-89,100,147,-41,52,51,-14,-2
-53,73,126,-10,-89,100,147,-44,51,51,-14,-2
-54,73,127,-9,-90,100,147,-47,50,50,-15,-3
-54,72,126,-9,-90,99,146,-48,49,49,-16,-4
-55,72,127,-8,-91,100,146,-47,50,49,-16,-4
-55,71,126,-8,-90,99,146,-46,50,48,-17,-4
-56,71,127,-7,-91,99,146,-44,50,48,-17,-5
-56,70,126,-7,-91,98,146,-40,51,48,-17,-4
-56,70,126,-7,-91,98,145,-38,51,48,-17,-4
-56,70,126,-7,-91,98,146,-38,52,48,-17,-4
-55,71,126,-8,-90,99,145,-40,51,48,-18,-4
-55,71,126,-8,-90,99,146,-41,51,48,-17,-4
-55,72,127,-8,-91,100,146,-41,51,48,-17,-4
-54,72,126,-9,-90,99,145,-42,49,47,-17,-4
-53,73,126,-10,-89,100,146,-41,50,48,-17,-4
-53,73,126,-10,-89,100,146,-40,50,47,-16,-3
-52,73,125,-10,-88,99,145,-43,49,46,-17,-4
-52,73,125,-10,-88,99,146,-46,49,46,-17,-4
-53,73,126,-10,-89,100,148,-47,50,48,-15,-2
-53,73,126,-10,-89,100,148,-47,51,49,-15,-2
-54,73,127,-9,-90,100,148,-46,51,49,-15,-2
-54,73,127,-9,-90,100,148,-43,52,50,-14,-2
-55,74,129,-9,-92,102,148,-40,53,51,-14,-2
-55,75,130,-10,-92,103,148,-36,55,52,-13,-1
-54,76,130,-11,-92,103,147,-35,55,52,-13,-2
-53,77,130,-12,-91,104,146,-35,55,52,-13,-2
-53,78,131,-12,-92,105,147,-35,56,54,-12,-1
-53,80,133,-13,-93,107,148,-36,56,53,-12,-1
-52,81,133,-14,-92,107,149,-36,57,54,-11,-1
-52,82,134,-15,-93,108,149,-36,56,53,-12,-1
-51,83,134,-16,-92,109,150,-34,57,54,-11,-1
-51,84,135,-16,-93,110,150,-34,57,54,-11,-1
-51,84,135,-16,-93,110,151,-34,58,55,-10,-1
-51,85,136,-17,-93,111,151,-34,58,55,-10,0
-52,85,137,-16,-94,111,152,-34,59,55,-10,0
-53,85,138,-16,-95,112,153,-32,61,56,-9,1
-53,85,138,-16,-95,112,154,-31,62,56,-9,1
-53,85,138,-16,-95,112,154,-31,63,56,-9,1
-53,86,139,-16,-96,113,153,-32,62,55,-10,0
"
		-53","
		86","
		139","
		-16","
		-96","
		113","
		154","
		-32","
		62","
		56","
		-10","
		0"
-53,87,140,-17,-96,114,154,-32,62,56,-10,0
-52,88,140,-18,-96,114,153,-33,62,56,-10,0
-51,90,141,-19,-96,116,152,-33,62,56,-9,1
-51,91,142,-20,-96,117,151,-32,64,57,-8,2
-50,93,143,-21,-96,118,149,-32,63,57,-7,3
-50,94,144,-22,-97,119,148,-31,64,58,-6,4
-49,95,144,-23,-96,120,147,-34,63,58,-6,4
-49,96,145,-23,-97,121,145,-38,62,58,-5,4
-49,95,144,-23,-96,120,143,-43,60,57,-6,4
-49,94,143,-22,-96,119,141,-48,57,55,-7,3
-50,93,143,-21,-96,118,141,-50,56,54,-7,2
-51,92,143,-20,-97,118,140,-51,55,54,-7,2
-51,90,141,-19,-96,116,138,-51,53,53,-8,1
-51,89,140,-19,-95,115,138,-48,53,53,-8,2
-50,88,138,-19,-94,113,137,-44,53,53,-8,2
-49,88,137,-19,-93,113,136,-43,53,52,-9,1
-49,88,137,-19,-93,113,136,-43,53,52,-8,2
-48,87,135,-19,-91,111,136,-44,54,52,-8,2
-48,87,135,-19,-91,111,136,-45,53,53,-8,3
-48,87,135,-19,-91,111,137,-45,53,53,-7,3
-48,87,135,-19,-91,111,137,-44,54,53,-7,3
-48,86,134,-19,-91,110,139,-44,55,54,-6,3
-48,86,134,-19,-91,110,140,-45,56,54,-6,3
-48,85,133,-18,-90,109,140,-45,56,53,-7,2
-49,84,133,-17,-91,109,141,-43,57,53,-7,2
-49,83,132,-17,-90,108,140,-43,56,52,-8,1
-50,80,130,-15,-90,105,140,-44,54,51,-10,0
-52,77,129,-12,-90,103,140,-44,52,50,-11,-1
-53,75,128,-11,-90,102,140,-44,50,49,-12,-2
-53,73,126,-10,-89,100,141,-44,49,47,-14,-3
-54,71,125,-8,-89,98,141,-44,48,46,-15,-5
-54,69,123,-7,-88,96,141,-45,47,45,-17,-6
-55,69,124,-7,-89,97,142,-44,48,45,-17,-6
-55,69,124,-7,-89,97,143,-43,48,45,-17,-6
-54,70,124,-8,-89,97,142,-43,48,43,-18,-7
-54,70,124,-8,-89,97,142,-43,48,43,-18,-7
-54,70,124,-8,-89,97,142,-44,49,44,-17,-7
-53,71,124,-9,-88,98,141,-45,48,44,-18,-7
-53,71,124,-9,-88,98,141,-45,49,44,-17,-7
-53,71,124,-9,-88,98,140,-45,49,44,-17,-7
-54,71,125,-8,-89,98,141,-43,50,45,-16,-6
-54,71,125,-8,-89,98,141,-42,50,45,-17,-7
-54,70,124,-8,-89,97,141,-42,50,45,-17,-7
-54,70,124,-8,-89,97,141,-42,50,45,-17,-7
-54,70,124,-8,-89,97,141,-43,49,44,-17,-6
-54,71,125,-8,-89,98,142,-43,49,44,-17,-6
-53,71,124,-9,-88,98,142,-44,49,44,-17,-7
-53,72,125,-9,-89,99,143,-43,49,44,-17,-6
-53,72,125,-9,-89,99,144,-43,49,44,-16,-6
-53,72,125,-9,-89,99,144,-43,49,44,-17,-6
-53,72,125,-9,-89,99,144,-43,48,44,-17,-6
-53,71,124,-9,-88,98,143,-43,48,44,-17,-6
-53,71,124,-9,-88,98,142,-43,49,44,-17,-6
-53,70,123,-8,-88,97,142,-43,49,45,-17,-6
-54,70,124,-8,-89,97,142,-43,49,45,-17,-7
-54,69,123,-7,-88,96,142,-43,49,44,-18,-7
-54,69,123,-7,-88,96,142,-44,50,44,-18,-7
-54,69,123,-7,-88,96,142,-46,50,44,-18,-8
-54,69,123,-7,-88,96,143,-47,49,44,-18,-8
-54,70,124,-8,-89,97,144,-48,48,45,-18,-8
-55,70,125,-7,-90,98,144,-48,48,45,-18,-7
-55,70,125,-7,-90,98,143,-47,48,45,-18,-7
-55,70,125,-7,-90,98,143,-46,49,45,-18,-7
-54,70,124,-8,-89,97,142,-45,50,45,-18,-7
-54,70,124,-8,-89,97,142,-43,51,45,-18,-7
-54,69,123,-7,-88,96,141,-41,51,45,-18,-7
-53,69,122,-8,-87,96,141,-41,52,45,-18,-7
-53,70,123,-8,-88,97,142,-42,51,45,-18,-7
-53,70,123,-8,-88,97,142,-43,51,46,-18,-7
-53,70,123,-8,-88,97,143,-44,50,46,-18,-7
-54,71,125,-8,-89,98,144,-45,50,47,-17,-6
-53,72,125,-9,-89,99,143,-46,50,46,-18,-6
-54,72,126,-9,-90,99,144,-46,51,46,-17,-6
-54,72,126,-9,-90,99,144,-45,51,46,-18,-6
-55,72,127,-8,-91,100,146,-43,53,46,-17,-6
-55,72,127,-8,-91,100,147,-41,54,45,-18,-7
-56,72,128,-8,-92,100,149,-38,55,44,-20,-9
-57,70,127,-6,-92,99,153,-32,58,43,-22,-11
-58,68,126,-5,-92,97,159,-24,62,41,-25,-14
-59,64,123,-2,-91,94,166,-11,68,39,-29,-17
-59,60,119,0,-89,90,174,3,74,37,-34,-22
-58,56,114,1,-86,85,181,18,81,35,-40,-27
-57,53,110,2,-83,82,189,33,89,35,-42,-30
-55,51,106,2,-80,79,195,46,97,36,-44,-31
-52,52,104,0,-78,78,198,57,105,42,-41,-30
-48,57,105,-4,-76,81,198,65,115,51,-35,-25
-41,65,106,-12,-73,86,194,72,127,64,-25,-18
-33,76,109,-21,-71,93,189,79,143,83,-11,-7
-23,92,115,-34,-69,104,181,86,164,107,7,5
-12,111,123,-49,-67,117,171,89,189,138,29,22
-1,135,136,-67,-68,136,159,84,214,175,56,42
9,165,156,-87,-73,161,143,63,230,213,86,63
17,197,180,-107,-81,189,127,30,238,255,120,89
24,233,209,-128,-92,221,106,-19,236,301,157,117
31,268,237,-149,-103,253,82,-78,225,353,197,146
38,301,263,-169,-112,282,56,-144,209,411,238,174
44,330,286,-187,-121,308,30,-208,190,475,279,203
49,351,302,-200,-126,327,6,-268,167,534,316,227
49,362,313,-205,-132,338,-13,-314,138,583,343,245
44,362,318,-203,-137,340,-23,-346,102,612,360,255
35,355,320,-195,-142,338,-27,-366,58,615,362,256
21,343,322,-182,-150,333,-23,-373,9,589,352,251
4,325,321,-164,-158,323,-15,-370,-43,529,327,237
-13,300,313,-143,-163,307,-5,-356,-91,442,289,216
-28,274,302,-123,-165,288,3,-339,-129,342,245,190
-40,248,288,-104,-164,268,11,-317,-151,245,200,165
-50,221,271,-85,-160,246,19,-295,-160,160,156,138
-58,192,250,-67,-154,221,29,-269,-157,94,116,111
-64,163,227,-49,-145,195,41,-244,-148,46,79,84
-68,138,206,-35,-137,172,55,-220,-133,21,51,62
-70,118,188,-24,-129,153,68,-200,-116,14,29,43
-72,101,173,-14,-122,137,83,-181,-99,16,14,28
-73,87,160,-7,-116,124,95,-164,-85,15,1,15
-73,77,150,-2,-111,114,102,-153,-73,14,-9,6
-73,70,143,2,-108,107,109,-145,-62,17,-14,0
-72,67,139,3,-105,103,113,-140,-50,19,-18,-5
-71,64,135,4,-103,100,118,-133,-35,22,-18,-7
-69,64,133,3,-101,99,121,-124,-21,26,-18,-8
-67,66,133,1,-100,100,124,-113,-5,32,-16,-7
-64,70,134,-3,-99,102,127,-101,9,37,-14,-5
-62,74,136,-6,-99,105,130,-86,22,42,-12,-4
-60,77,137,-8,-98,107,132,-69,33,47,-8,-1
-58,81,139,-11,-98,110,134,-55,41,51,-7,1
-56,83,139,-13,-97,111,136,-45,46,52,-7,0
-54,84,138,-15,-96,111,139,-38,51,53,-7,1
-54,84,138,-15,-96,111,142,-32,55,53,-7,1
-53,84,137,-15,-95,111,145,-30,59,53,-8,0
-53,84,137,-15,-95,111,146,-29,62,53,-9,-1
-53,83,136,-15,-94,110,147,-28,64,52,-10,-2
-53,82,135,-14,-94,109,148,-27,66,52,-11,-3
-53,81,134,-14,-93,108,148,-28,67,52,-12,-4
-53,81,134,-14,-93,108,148,-28,67,52,-12,-4
-53,80,133,-13,-93,107,148,-28,67,52,-12,-4
-53,80,133,-13,-93,107,148,-28,67,52,-13,-5
-54,80,134,-13,-94,107,149,-26,68,54,-12,-3
-54,80,134,-13,-94,107,150,-25,69,54,-12,-3
-54,80,134,-13,-94,107,150,-24,70,54,-12,-4
-54,80,134,-13,-94,107,151,-23,71,54,-12,-4
-55,79,134,-12,-94,107,151,-22,72,54,-12,-5
-54,79,133,-12,-93,106,151,-21,74,55,-12,-4
-53,80,133,-13,-93,107,150,-22,75,55,-12,-5
-53,81,134,-14,-93,108,151,-21,76,56,-11,-4
-52,81,133,-14,-92,107,151,-20,76,57,-10,-3
-51,82,133,-15,-92,108,150,-21,75,57,-10,-2
-51,83,134,-16,-92,109,151,-20,75,57,-9,-2
-51,83,134,-16,-92,109,151,-20,76,58,-8,-1
-50,84,134,-17,-92,109,151,-20,76,57,-9,-2
-50,84,134,-17,-92,109,152,-21,77,57,-9,-2
-50,83,133,-16,-91,108,152,-21,78,57,-9,-3
-50,83,133,-16,-91,108,152,-20,79,57,-9,-3
-49,84,133,-17,-91,109,152,-20,80,58,-8,-3
-49,84,133,-17,-91,109,152,-18,80,59,-8,-2
-48,84,132,-18,-90,108,151,-16,79,58,-8,-3
-48,85,133,-18,-90,109,151,-14,79,58,-7,-2
-47,85,132,-19,-89,109,151,-15,78,59,-7,-2
-47,85,132,-19,-89,109,152,-19,78,59,-6,-2
-47,85,132,-19,-89,109,153,-25,78,59,-6,-2
-48,85,133,-18,-90,109,153,-27,78,58,-7,-2
-48,85,133,-18,-90,109,153,-26,79,59,-7,-2
-48,85,133,-18,-90,109,152,-23,80,60,-7,-2
-48,85,133,-18,-90,109,151,-20,81,60,-6,-2
-48,85,133,-18,-90,109,150,-14,82,61,-6,-1
-48,85,133,-18,-90,109,149,-10,83,62,-6,0
-48,86,134,-19,-91,110,149,-9,83,63,-5,0
-48,86,134,-19,-91,110,149,-12,83,63,-5,0
-48,86,134,-19,-91,110,149,-15,83,62,-5,0
-49,86,135,-18,-92,111,150,-16,83,62,-6,0
-48,86,134,-19,-91,110,150,-15,84,62,-6,0
-48,86,134,-19,-91,110,150,-14,85,62,-6,0
-49,86,135,-18,-92,111,150,-12,86,63,-6,0
-48,86,134,-19,-91,110,150,-11,86,63,-6,0
-47,87,134,-20,-90,111,149,-13,85,63,-6,0
-47,87,134,-20,-90,111,148,-13,84,64,-6,0
-47,88,135,-20,-91,112,147,-13,84,64,-6,1
-47,88,135,-20,-91,112,146,-12,84,65,-5,1
-48,88,136,-20,-92,112,146,-12,85,66,-5,1
-48,88,136,-20,-92,112,146,-11,87,66,-5,1
-48,88,136,-20,-92,112,146,-11,89,67,-6,0
-49,87,136,-19,-92,112,148,-9,92,68,-4,1
-49,87,136,-19,-92,112,149,-8,94,69,-4,2
-48,88,136,-20,-92,112,149,-9,94,70,-4,2
-47,89,136,-21,-91,113,149,-10,94,70,-3,2
-46,90,136,-22,-91,113,149,-9,95,72,-2,3
-45,91,136,-23,-90,114,149,-9,95,72,-2,3
-44,92,136,-24,-90,114,148,-9,95,72,-2,3
-43,92,135,-24,-89,114,149,-9,95,73,-1,4
-44,92,136,-24,-90,114,149,-9,95,73,-1,4
-44,92,136,-24,-90,114,149,-9,97,73,-1,3
-44,92,136,-24,-90,114,149,-9,98,73,-1,3
-44,92,136,-24,-90,114,149,-9,99,73,0,3
-43,93,136,-25,-89,115,149,-8,100,74,1,4
-43,94,137,-25,-90,116,148,-8,99,74,1,4
-43,95,138,-26,-90,117,148,-6,99,76,2,5
-42,96,138,-27,-90,117,148,-6,98,76,3,5
-42,96,138,-27,-90,117,148,-5,99,77,4,6
-42,96,138,-27,-90,117,148,-5,100,78,4,6
-43,96,139,-26,-91,118,149,-4,102,79,6,7
-42,96,138,-27,-90,117,149,-4,103,79,5,6
-42,95,137,-26,-89,116,149,-2,106,80,6,7
-43,95,138,-26,-90,117,149,-1,108,82,6,7
-42,96,138,-27,-90,117,147,0,109,82,6,6
-42,96,138,-27,-90,117,147,2,111,83,7,7
-41,97,138,-28,-89,118,147,5,112,85,9,8
-40,99,139,-29,-89,119,147,5,111,86,9,8
-40,100,140,-30,-90,120,147,5,111,87,10,8
-38,100,138,-31,-88,119,148,5,112,88,11,9
-38,101,139,-31,-88,120,148,4,112,87,10,9
-38,101,139,-31,-88,120,149,3,114,88,11,9
-38,101,139,-31,-88,120,150,1,116,88,11,9
-38,101,139,-31,-88,120,150,1,118,89,12,9
-37,102,139,-32,-88,121,150,3,120,91,13,10
-37,103,140,-33,-88,122,149,4,121,92,13,10
-37,104,141,-33,-89,123,149,7,122,94,14,11
-37,104,141,-33,-89,123,149,11,123,96,16,12
-36,105,141,-34,-88,123,148,15,123,98,16,13
-36,106,142,-35,-89,124,148,19,124,100,17,14
-36,106,142,-35,-89,124,148,21,127,102,18,14
-35,106,141,-35,-88,124,149,23,130,103,19,15
-35,106,141,-35,-88,124,149,26,133,105,20,15
-34,107,141,-36,-87,124,149,26,136,106,19,15
-34,108,142,-37,-88,125,150,27,138,108,20,16
-33,109,142,-38,-87,126,149,27,140,109,21,16
-32,110,142,-39,-87,126,149,28,141,111,21,16
-31,112,143,-40,-87,128,147,29,142,113,22,17
-31,113,144,-41,-87,129,147,32,144,115,24,18
-31,114,145,-41,-88,130,148,35,147,117,25,20
-30,115,145,-42,-87,130,148,37,150,119,26,20
-29,116,145,-43,-87,131,148,39,153,121,26,20
-28,117,145,-44,-86,131,150,42,158,123,28,21
-27,118,145,-45,-86,132,151,44,161,126,28,22
-26,120,146,-47,-86,133,152,46,164,128,30,23
-26,122,148,-48,-87,135,151,47,166,131,31,24
-25,124,149,-49,-87,137,151,48,168,134,33,24
-25,126,151,-50,-88,139,152,51,171,138,35,26
-24,127,151,-51,-87,139,151,52,173,141,36,27
-23,128,151,-52,-87,140,151,54,175,143,38,28
-22,129,151,-53,-86,140,152,56,178,146,40,29
-22,130,152,-54,-87,141,152,58,181,148,41,30
-21,132,153,-55,-87,143,151,58,183,151,42,30
-20,133,153,-56,-86,143,152,58,187,154,44,32
-19,134,153,-57,-86,144,151,58,189,157,46,33
-18,136,154,-59,-86,145,151,59,192,161,48,34
-17,138,155,-60,-86,147,150,61,195,165,50,35
-15,140,155,-62,-85,148,149,64,197,169,53,37
-14,142,156,-64,-85,149,149,68,201,174,56,38
-13,144,157,-65,-85,151,148,73,204,178,58,40
-12,145,157,-66,-84,151,148,77,207,181,60,41
-11,146,157,-67,-84,152,147,78,210,184,61,42
-10,148,158,-69,-84,153,146,76,213,187,63,43
-10,149,159,-69,-84,154,147,73,216,191,65,44
-9,150,159,-70,-84,155,146,71,219,194,67,45
-8,152,160,-72,-84,156,146,71,221,197,70,47
-6,155,161,-74,-83,158,145,73,224,201,73,48
-5,157,162,-76,-83,160,144,76,226,206,75,50
-4,159,163,-77,-83,161,144,79,229,210,78,52
-3,161,164,-79,-83,163,144,82,231,214,81,54
-2,163,165,-80,-83,164,143,82,234,217,83,55
-1,164,165,-81,-83,165,142,78,236,220,85,56
-1,165,166,-82,-83,166,142,76,238,224,87,58
0,166,166,-83,-83,166,141,75,240,227,88,58
0,167,167,-83,-83,167,139,76,242,231,91,59
1,168,167,-84,-83,168,137,77,243,233,92,60
2,169,167,-85,-82,168,136,78,244,236,94,61
2,171,169,-86,-83,170,136,80,246,240,96,63
3,172,169,-87,-83,171,135,79,247,241,97,63
3,173,170,-88,-83,172,134,76,248,243,99,64
3,173,170,-88,-83,172,133,72,249,245,100,65
3,173,170,-88,-83,172,132,69,249,246,100,65
3,173,170,-88,-83,172,131,65,249,247,100,65
3,173,170,-88,-83,172,129,62,248,247,100,65
3,173,170,-88,-83,172,128,58,246,247,100,65
3,173,170,-88,-83,172,127,54,244,248,99,65
3,173,170,-88,-83,172,127,50,242,247,99,65
2,173,171,-87,-84,172,126,46,240,247,98,64
2,172,170,-87,-84,171,125,42,237,245,97,64
1,171,170,-86,-84,171,126,40,235,244,96,63
1,170,169,-85,-84,170,125,37,232,240,94,62
0,169,169,-84,-84,169,126,34,230,237,92,61
-1,167,168,-83,-84,168,126,31,228,233,90,59
-2,165,167,-81,-84,166,126,27,225,229,88,58
-3,163,166,-80,-84,165,126,23,220,224,85,56
-4,162,166,-79,-85,164,126,19,215,219,82,55
-5,160,165,-77,-85,163,125,15,209,214,79,53
-7,157,164,-75,-85,161,124,11,202,208,75,50
-9,154,163,-72,-86,159,125,9,196,202,72,49
-10,151,161,-70,-85,156,124,8,190,195,68,46
-12,147,159,-67,-85,153,124,6,185,188,65,43
-15,144,159,-64,-87,152,125,3,179,181,61,41
-17,140,157,-61,-87,149,126,0,174,175,57,38
-19,137,156,-59,-87,147,127,-2,168,168,54,36
-20,133,153,-56,-86,143,127,-4,162,162,50,33
-22,130,152,-54,-87,141,127,-8,155,155,46,31
-23,127,150,-52,-86,139,128,-10,150,150,43,29
-24,124,148,-50,-86,136,129,-13,144,144,39,26
-26,121,147,-47,-86,134,130,-14,140,140,37,25
-28,118,146,-45,-87,132,130,-18,134,134,33,22
-30,116,146,-43,-88,131,131,-21,130,130,31,20
-33,112,145,-39,-89,129,132,-23,125,125,28,19
-35,110,145,-37,-90,128,132,-24,120,120,25,16
"
		-37","
		107","
		144","
		-35","
		-90","
		126","
		133","
		-23","
		117","
		116","
		23","
		15"
-38,104,142,-33,-90,123,133,-22,113,112,21,13
-38,102,140,-32,-89,121,133,-21,109,108,19,12
-38,101,139,-31,-88,120,133,-20,105,104,16,10
-38,99,137,-30,-87,118,134,-19,103,101,15,9
-39,97,136,-29,-87,117,135,-19,100,97,13,8
-40,95,135,-27,-87,115,136,-21,98,94,11,7
-41,94,135,-26,-88,115,137,-25,95,91,9,6
-42,92,134,-25,-88,113,137,-28,92,88,7,4
-43,90,133,-23,-88,112,137,-31,90,86,5,3
-44,89,133,-22,-88,111,136,-33,87,83,3,1
-45,88,133,-21,-89,111,136,-32,86,82,3,1
-45,88,133,-21,-89,111,136,-32,84,81,2,0
-45,88,133,-21,-89,111,136,-31,82,79,1,-1
-46,88,134,-21,-90,111,136,-29,81,78,0,-1
-46,88,134,-21,-90,111,137,-28,80,76,0,-2
-46,87,133,-20,-89,110,139,-26,81,76,0,-1
-46,86,132,-20,-89,109,140,-27,79,74,-1,-2
-46,85,131,-19,-88,108,141,-28,78,72,-2,-3
-46,85,131,-19,-88,108,141,-29,77,71,-4,-4
-47,84,131,-18,-89,108,141,-31,77,70,-4,-4
-47,84,131,-18,-89,108,141,-34,75,69,-5,-5
-47,83,130,-18,-88,107,140,-36,73,68,-6,-5
-48,83,131,-17,-89,107,141,-36,72,68,-6,-5
-48,83,131,-17,-89,107,140,-35,72,67,-7,-5
-48,82,130,-17,-89,106,139,-34,71,66,-7,-5
-48,82,130,-17,-89,106,139,-31,72,65,-7,-5
-48,82,130,-17,-89,106,139,-28,73,65,-8,-6
-49,83,132,-17,-90,108,140,-26,74,65,-7,-5
-48,83,131,-17,-89,107,140,-25,75,65,-7,-5
-48,84,132,-18,-90,108,140,-26,74,65,-8,-5
-48,84,132,-18,-90,108,140,-26,74,66,-7,-5
-48,85,133,-18,-90,109,140,-26,74,66,-7,-4
-48,85,133,-18,-90,109,140,-26,74,67,-6,-4
-48,85,133,-18,-90,109,141,-27,73,66,-7,-4
-49,85,134,-18,-91,110,140,-28,72,66,-7,-4
-49,85,134,-18,-91,110,141,-28,72,66,-7,-4
-49,85,134,-18,-91,110,141,-28,73,65,-7,-4
-49,85,134,-18,-91,110,141,-28,73,65,-7,-5
-49,85,134,-18,-91,110,141,-28,73,65,-7,-4
-49,85,134,-18,-91,110,140,-27,74,65,-7,-4
-48,85,133,-18,-90,109,140,-27,74,65,-6,-4
-48,85,133,-18,-90,109,140,-27,74,65,-6,-3
-48,86,134,-19,-91,110,140,-27,73,65,-5,-3
-48,86,134,-19,-91,110,140,-27,73,65,-5,-3
-48,86,134,-19,-91,110,140,-28,72,65,-5,-2
-48,87,135,-19,-91,111,140,-29,71,63,-6,-4
-48,87,135,-19,-91,111,140,-29,71,62,-6,-4
-48,86,134,-19,-91,110,141,-27,71,63,-5,-3
-48,86,134,-19,-91,110,141,-27,71,62,-5,-3
-47,86,133,-19,-90,110,140,-30,69,61,-6,-4
-47,86,133,-19,-90,110,140,-32,69,62,-6,-4
-48,86,134,-19,-91,110,141,-32,70,63,-5,-3
-48,87,135,-19,-91,111,140,-33,70,62,-6,-4
-48,87,135,-19,-91,111,139,-32,72,62,-5,-3
-48,87,135,-19,-91,111,139,-31,73,62,-5,-3
-49,87,136,-19,-92,112,140,-27,74,62,-4,-2
-49,87,136,-19,-92,112,139,-25,73,62,-4,-2
-48,87,135,-19,-91,111,136,-25,72,60,-5,-3
-48,87,135,-19,-91,111,136,-28,70,60,-5,-3
-48,87,135,-19,-91,111,136,-30,69,60,-5,-3
-48,88,136,-20,-92,112,137,-32,69,60,-4,-3
-47,88,135,-20,-91,112,137,-33,70,60,-4,-2
-47,89,136,-21,-91,113,137,-34,70,60,-4,-3
-46,89,135,-21,-90,112,138,-31,71,61,-3,-2
-45,90,135,-22,-90,113,138,-29,72,61,-3,-2
-45,90,135,-22,-90,113,137,-27,73,61,-3,-2
-46,89,135,-21,-90,112,138,-25,75,62,-2,-1
-46,89,135,-21,-90,112,138,-24,75,62,-2,-1
-46,89,135,-21,-90,112,138,-23,75,62,-2,-1
-46,89,135,-21,-90,112,138,-24,74,61,-3,-2
-47,88,135,-20,-91,112,139,-24,74,61,-2,-2
-47,88,135,-20,-91,112,138,-24,72,60,-3,-2
-47,89,136,-21,-91,113,137,-26,70,59,-4,-3
-47,88,135,-20,-91,112,138,-27,69,59,-4,-3
-48,88,136,-20,-92,112,138,-30,68,59,-4,-3
-48,88,136,-20,-92,112,138,-33,68,58,-5,-4
-48,87,135,-19,-91,111,137,-34,68,57,-6,-4
-49,86,135,-18,-92,111,138,-34,69,58,-6,-4
-49,86,135,-18,-92,111,138,-34,69,57,-6,-4
-48,85,133,-18,-90,109,138,-34,69,56,-6,-4
-48,85,133,-18,-90,109,137,-33,69,56,-6,-4
-48,85,133,-18,-90,109,137,-31,68,55,-6,-4
-47,86,133,-19,-90,110,136,-31,66,54,-7,-4
-47,86,133,-19,-90,110,136,-31,66,55,-6,-4
-46,86,132,-20,-89,109,137,-31,65,55,-6,-3
-46,87,133,-20,-89,110,137,-32,65,54,-6,-3
-46,86,132,-20,-89,109,137,-31,64,54,-6,-3
-46,86,132,-20,-89,109,137,-31,63,54,-7,-3
-46,85,131,-19,-88,108,137,-31,62,54,-7,-4
-47,85,132,-19,-89,109,137,-32,63,54,-7,-4
-47,84,131,-18,-89,108,137,-34,62,54,-8,-5
-48,84,132,-18,-90,108,136,-36,61,54,-8,-6
-48,84,132,-18,-90,108,136,-37,61,54,-8,-6
-48,84,132,-18,-90,108,136,-37,61,54,-8,-6
-48,84,132,-18,-90,108,136,-37,61,53,-8,-6
-48,84,132,-18,-90,108,136,-36,61,53,-8,-6
-48,84,132,-18,-90,108,137,-34,61,52,-8,-6
-48,84,132,-18,-90,108,137,-34,61,52,-8,-6
-48,83,131,-17,-89,107,138,-33,61,52,-8,-6
-48,83,131,-17,-89,107,138,-35,60,51,-9,-7
-48,82,130,-17,-89,106,137,-35,59,50,-9,-7
-48,82,130,-17,-89,106,137,-37,58,49,-10,-7
-48,82,130,-17,-89,106,136,-39,56,49,-10,-7
-48,81,129,-16,-88,105,136,-41,55,48,-10,-7
-48,81,129,-16,-88,105,136,-42,53,47,-10,-7
-48,80,128,-16,-88,104,137,-40,53,48,-9,-6
-49,80,129,-15,-89,105,137,-40,52,48,-10,-7
-49,79,128,-15,-88,104,136,-40,52,47,-10,-8
-50,79,129,-14,-89,104,136,-38,54,48,-10,-7
-50,79,129,-14,-89,104,136,-37,54,48,-11,-7
-51,79,130,-14,-90,105,135,-37,55,48,-11,-8
-51,79,130,-14,-90,105,135,-38,55,48,-11,-8
-51,78,129,-13,-90,104,135,-38,55,48,-12,-8
-51,78,129,-13,-90,104,135,-38,55,48,-12,-8
-51,78,129,-13,-90,104,136,-37,55,48,-12,-8
-50,78,128,-14,-89,103,137,-35,55,47,-12,-8
-50,78,128,-14,-89,103,138,-35,55,47,-12,-8
-49,78,127,-14,-88,103,138,-36,55,47,-12,-8
-49,78,127,-14,-88,103,139,-38,54,46,-12,-8
-49,78,127,-14,-88,103,139,-40,53,46,-13,-9
-49,77,126,-14,-87,102,138,-42,52,45,-13,-9
-50,76,126,-13,-88,101,138,-41,52,46,-12,-9
-51,75,126,-12,-88,101,137,-42,52,45,-13,-9
-51,75,126,-12,-88,101,136,-42,52,45,-14,-10
-51,75,126,-12,-88,101,136,-41,52,45,-14,-10
-51,75,126,-12,-88,101,136,-39,53,45,-14,-10
-51,75,126,-12,-88,101,136,-38,53,44,-14,-10
-51,76,127,-12,-89,102,137,-37,53,44,-14,-10
-50,76,126,-13,-88,101,138,-37,53,44,-14,-10
-50,76,126,-13,-88,101,138,-37,53,44,-14,-10
-50,76,126,-13,-88,101,138,-39,52,44,-14,-10
-50,76,126,-13,-88,101,138,-41,51,44,-14,-10
-50,76,126,-13,-88,101,138,-42,49,44,-14,-10
-51,76,127,-12,-89,102,137,-42,49,44,-14,-10
-51,75,126,-12,-88,101,137,-43,48,43,-14,-10
-51,75,126,-12,-88,101,137,-44,48,43,-14,-10
-51,74,125,-11,-88,100,137,-43,50,44,-14,-10
-51,74,125,-11,-88,100,137,-41,51,43,-14,-10
-51,74,125,-11,-88,100,136,-39,52,43,-15,-10
-51,73,124,-11,-87,99,135,-39,52,42,-15,-11
-51,73,124,-11,-87,99,135,-39,52,41,-15,-11
-51,73,124,-11,-87,99,134,-38,52,41,-16,-11
-51,73,124,-11,-87,99,134,-37,52,41,-15,-11
-51,74,125,-11,-88,100,135,-38,52,41,-15,-10
-51,74,125,-11,-88,100,136,-39,51,41,-15,-10
-51,74,125,-11,-88,100,137,-40,50,41,-15,-9
-52,73,125,-10,-88,99,137,-40,50,40,-15,-9
-52,73,125,-10,-88,99,137,-40,49,40,-15,-9
-51,73,124,-11,-87,99,136,-41,49,40,-15,-9
-50,73,123,-11,-86,98,136,-41,49,40,-15,-9
-50,73,123,-11,-86,98,136,-40,49,40,-15,-9
-49,73,122,-12,-85,98,135,-40,49,40,-15,-10
-49,74,123,-12,-86,99,135,-40,49,41,-15,-10
-48,74,122,-13,-85,98,136,-40,49,41,-15,-10
-49,74,123,-12,-86,99,137,-42,48,41,-15,-10
-49,73,122,-12,-85,98,136,-43,48,41,-15,-11
-49,72,121,-11,-85,97,137,-43,49,41,-15,-10
-50,72,122,-11,-86,97,136,-43,49,41,-16,-10
-51,71,122,-10,-86,97,136,-40,50,41,-16,-10
-51,70,121,-9,-86,96,136,-38,51,41,-16,-10
-51,69,120,-9,-85,95,135,-37,51,41,-17,-11
-51,69,120,-9,-85,95,135,-38,51,41,-17,-10
-52,70,122,-9,-87,96,135,-41,50,41,-17,-10
-51,70,121,-9,-86,96,135,-43,49,41,-16,-10
-51,70,121,-9,-86,96,135,-45,48,41,-16,-10
-51,70,121,-9,-86,96,135,-45,48,40,-17,-10
-51,70,121,-9,-86,96,134,-44,48,40,-17,-10
-51,70,121,-9,-86,96,134,-41,48,40,-17,-10
-51,70,121,-9,-86,96,134,-38,49,40,-18,-10
-52,69,121,-8,-86,95,134,-36,50,40,-17,-10
-52,69,121,-8,-86,95,134,-36,49,40,-18,-10
-52,69,121,-8,-86,95,134,-37,48,40,-18,-11
-52,69,121,-8,-86,95,134,-39,47,40,-18,-11
-52,69,121,-8,-86,95,134,-40,46,40,-18,-11
-51,70,121,-9,-86,96,134,-42,45,40,-18,-11
-50,70,120,-10,-85,95,134,-42,46,41,-17,-10
-50,70,120,-10,-85,95,134,-41,48,41,-17,-10
-50,71,121,-10,-85,96,133,-41,48,40,-18,-11
-49,71,120,-11,-84,96,133,-40,49,40,-18,-10
-49,70,119,-10,-84,95,133,-39,50,40,-18,-11
-50,70,120,-10,-85,95,133,-38,51,41,-18,-10
-50,69,119,-9,-84,94,133,-38,50,40,-18,-10
-51,69,120,-9,-85,95,132,-39,49,40,-18,-10
-51,69,120,-9,-85,95,132,-40,49,40,-19,-11
-52,69,121,-8,-86,95,133,-40,49,41,-18,-10
-52,70,122,-9,-87,96,133,-40,48,40,-18,-11
-52,70,122,-9,-87,96,134,-39,47,39,-18,-11
-52,70,122,-9,-87,96,134,-39,47,39,-19,-11
-52,70,122,-9,-87,96,135,-41,46,39,-19,-11
-51,70,121,-9,-86,96,136,-44,46,38,-20,-11
-51,70,121,-9,-86,96,137,-47,46,38,-20,-11
-51,70,121,-9,-86,96,137,-47,46,38,-20,-12
-51,70,121,-9,-86,96,136,-47,46,38,-20,-12
-50,70,120,-10,-85,95,135,-45,47,39,-19,-11
-50,69,119,-9,-84,94,133,-43,48,40,-19,-11
-50,69,119,-9,-84,94,132,-40,48,40,-19,-12
-50,68,118,-9,-84,93,132,-37,48,40,-19,-12
-50,68,118,-9,-84,93,131,-37,47,40,-19,-12
-51,68,119,-8,-85,94,133,-37,48,40,-18,-11
-51,68,119,-8,-85,94,134,-37,48,40,-19,-11
-50,69,119,-9,-84,94,135,-38,47,39,-19,-11
-49,70,119,-10,-84,95,134,-40,46,38,-20,-12
-49,72,121,-11,-85,97,135,-41,45,39,-19,-11
-49,72,121,-11,-85,97,135,-41,45,39,-19,-10
-49,73,122,-12,-85,98,134,-42,44,37,-20,-11
-49,73,122,-12,-85,98,134,-44,44,37,-20,-12
-49,72,121,-11,-85,97,135,-46,45,37,-20,-11
-50,71,121,-10,-85,96,135,-47,45,37,-20,-12
-51,70,121,-9,-86,96,136,-44,47,38,-20,-12
-51,70,121,-9,-86,96,135,-42,47,39,-20,-12
-51,70,121,-9,-86,96,134,-40,48,40,-20,-12
-51,70,121,-9,-86,96,133,-37,48,40,-19,-12
-51,70,121,-9,-86,96,133,-34,48,41,-19,-12
-51,70,121,-9,-86,96,132,-32,48,41,-19,-12
-51,69,120,-9,-85,95,132,-32,49,41,-19,-12
-51,69,120,-9,-85,95,132,-34,49,40,-19,-12
-51,69,120,-9,-85,95,132,-36,48,39,-20,-12
-52,68,120,-8,-86,94,134,-36,50,39,-20,-12
-52,68,120,-8,-86,94,134,-37,50,39,-20,-12
-52,67,119,-7,-85,93,134,-37,49,39,-21,-12
-52,67,119,-7,-85,93,133,-38,49,39,-21,-12
-52,67,119,-7,-85,93,133,-39,49,39,-20,-12
-52,68,120,-8,-86,94,133,-40,48,40,-20,-12
-52,68,120,-8,-86,94,133,-41,47,40,-20,-11
-52,68,120,-8,-86,94,133,-41,46,40,-20,-11
-52,69,121,-8,-86,95,133,-41,46,40,-19,-11
-52,69,121,-8,-86,95,134,-41,46,39,-20,-11
-52,69,121,-8,-86,95,134,-40,47,39,-20,-12
-51,68,119,-8,-85,94,134,-39,47,40,-20,-12
-50,69,119,-9,-84,94,133,-39,47,39,-21,-13
-50,69,119,-9,-84,94,133,-38,48,39,-21,-13
-50,69,119,-9,-84,94,133,-38,47,40,-20,-13
-50,70,120,-10,-85,95,133,-38,47,40,-19,-12
-50,70,120,-10,-85,95,133,-39,47,41,-19,-12
-51,70,121,-9,-86,96,133,-39,47,41,-18,-12
-51,69,120,-9,-85,95,133,-40,46,40,-18,-12
-51,69,120,-9,-85,95,133,-41,47,40,-18,-12
-51,68,119,-8,-85,94,133,-40,48,40,-18,-11
-51,68,119,-8,-85,94,133,-40,48,40,-19,-12
-51,67,118,-8,-84,93,133,-40,48,39,-19,-12
-51,67,118,-8,-84,93,133,-40,47,39,-20,-12
-51,67,118,-8,-84,93,133,-39,47,38,-20,-12
-51,67,118,-8,-84,93,133,-40,46,38,-21,-12
-51,67,118,-8,-84,93,133,-41,45,37,-21,-12
-51,67,118,-8,-84,93,133,-44,44,37,-21,-12
-52,67,119,-7,-85,93,132,-47,43,36,-22,-12
-53,67,120,-7,-86,94,132,-46,43,37,-22,-12
-53,68,121,-7,-87,95,132,-45,42,36,-23,-12
-52,68,120,-8,-86,94,132,-42,44,36,-22,-12
-52,68,120,-8,-86,94,132,-40,45,37,-22,-12
-52,68,120,-8,-86,94,133,-40,45,37,-22,-12
-51,69,120,-9,-85,95,134,-41,44,36,-22,-13
-51,70,121,-9,-86,96,135,-42,44,37,-22,-12
-51,70,121,-9,-86,96,134,-43,44,38,-21,-12
-51,70,121,-9,-86,96,134,-44,44,39,-21,-12
-51,70,121,-9,-86,96,134,-42,45,39,-20,-12
-50,71,121,-10,-85,96,133,-39,45,39,-21,-12
-49,70,119,-10,-84,95,132,-34,46,39,-20,-12
-49,70,119,-10,-84,95,132,-32,48,39,-20,-12
-49,70,119,-10,-84,95,131,-31,48,39,-20,-12
-49,70,119,-10,-84,95,131,-33,48,39,-19,-12
-50,70,120,-10,-85,95,133,-34,49,40,-18,-11
-51,70,121,-9,-86,96,133,-36,48,39,-18,-11
-51,70,121,-9,-86,96,133,-38,47,39,-18,-11
-52,70,122,-9,-87,96,133,-39,46,39,-18,-11
-52,70,122,-9,-87,96,133,-40,45,38,-19,-12
-52,70,122,-9,-87,96,133,-40,45,38,-19,-12
-52,70,122,-9,-87,96,133,-39,45,38,-18,-12
-52,70,122,-9,-87,96,133,-38,46,38,-18,-12
-51,70,121,-9,-86,96,132,-36,46,38,-18,-12
-51,70,121,-9,-86,96,132,-35,46,39,-18,-12
-51,70,121,-9,-86,96,132,-35,46,39,-18,-12
-51,70,121,-9,-86,96,132,-35,46,40,-18,-12
-51,69,120,-9,-85,95,132,-36,45,40,-18,-12
-51,69,120,-9,-85,95,131,-36,45,40,-18,-12
-51,69,120,-9,-85,95,132,-36,45,40,-18,-12
-51,69,120,-9,-85,95,132,-36,46,40,-18,-12
-51,69,120,-9,-85,95,133,-36,47,40,-18,-12
-51,69,120,-9,-85,95,133,-36,47,40,-18,-11
-50,70,120,-10,-85,95,133,-36,47,39,-18,-11
-50,70,120,-10,-85,95,133,-36,47,39,-18,-12
-49,70,119,-10,-84,95,132,-37,46,38,-20,-12
-49,70,119,-10,-84,95,132,-38,45,38,-20,-12
-50,70,120,-10,-85,95,133,-38,46,39,-19,-12
-50,70,120,-10,-85,95,133,-38,45,39,-19,-12
-50,71,121,-10,-85,96,132,-40,43,38,-20,-14
-50,71,121,-10,-85,96,132,-40,43,38,-20,-14
-50,71,121,-10,-85,96,133,-40,43,37,-21,-14
-50,70,120,-10,-85,95,134,-39,44,38,-20,-13
-50,70,120,-10,-85,95,134,-38,44,37,-21,-14
-50,70,120,-10,-85,95,133,-38,44,37,-21,-14
-51,70,121,-9,-86,96,132,-38,45,37,-21,-13
-51,70,121,-9,-86,96,131,-40,45,38,-21,-13
-51,70,121,-9,-86,96,131,-41,45,38,-21,-13
-51,70,121,-9,-86,96,130,-41,45,39,-21,-12
-52,70,122,-9,-87,96,130,-40,45,39,-21,-12
-53,70,123,-8,-88,97,132,-38,47,40,-20,-11
-53,69,122,-8,-87,96,133,-37,47,41,-20,-11
-52,69,121,-8,-86,95,133,-35,47,41,-20,-11
"
		-52","
		69","
		121","
		-8","
		-86","
		95","
		133","
		-32","
		47","
		42","
		-20","
		-10"
-51,70,121,-9,-86,96,132,-33,46,41,-20,-11
-51,70,121,-9,-86,96,133,-33,46,41,-20,-11
-50,71,121,-10,-85,96,132,-34,46,41,-21,-12
-50,71,121,-10,-85,96,133,-35,46,41,-21,-12
-50,71,121,-10,-85,96,133,-38,46,41,-20,-12
-51,71,122,-10,-86,97,134,-40,47,41,-19,-11
-51,71,122,-10,-86,97,134,-41,46,40,-20,-12
-52,70,122,-9,-87,96,134,-41,46,40,-20,-13
-52,69,121,-8,-86,95,133,-40,47,41,-20,-12
-53,68,121,-7,-87,95,131,-39,47,40,-20,-13
-54,68,122,-7,-88,95,131,-35,47,41,-19,-13
-54,68,122,-7,-88,95,130,-31,48,41,-19,-13
-53,68,121,-7,-87,95,129,-31,47,41,-19,-14
-52,69,121,-8,-86,95,129,-30,48,41,-18,-13
-51,70,121,-9,-86,96,129,-31,47,41,-19,-13
-50,71,121,-10,-85,96,130,-31,47,41,-19,-13
-49,72,121,-11,-85,97,131,-31,47,41,-18,-12
-48,72,120,-12,-84,96,132,-33,47,40,-18,-12
-47,73,120,-13,-83,97,133,-35,46,41,-18,-12
-47,73,120,-13,-83,97,134,-38,46,41,-18,-12
-47,73,120,-13,-83,97,135,-40,45,40,-18,-12
-47,74,121,-13,-84,98,133,-43,43,39,-19,-13
-47,74,121,-13,-84,98,133,-43,43,39,-18,-13
-47,74,121,-13,-84,98,132,-41,42,39,-18,-13
-47,74,121,-13,-84,98,132,-39,43,39,-18,-13
-47,73,120,-13,-83,97,132,-35,44,41,-18,-13
-47,73,120,-13,-83,97,131,-33,45,41,-18,-13
-48,72,120,-12,-84,96,130,-32,46,41,-18,-13
-49,71,120,-11,-84,96,131,-32,47,42,-18,-13
-50,70,120,-10,-85,95,131,-31,49,43,-17,-13
-51,70,121,-9,-86,96,131,-32,49,43,-17,-13
-52,70,122,-9,-87,96,132,-32,49,44,-17,-13
-52,70,122,-9,-87,96,132,-32,49,44,-16,-12
-52,71,123,-9,-87,97,132,-31,49,44,-16,-11
-51,71,122,-10,-86,97,133,-31,49,44,-16,-11
-51,72,123,-10,-87,98,132,-32,48,43,-16,-12
-50,72,122,-11,-86,97,132,-33,47,43,-17,-11
-49,72,121,-11,-85,97,132,-34,47,43,-17,-12
-49,72,121,-11,-85,97,132,-35,47,44,-17,-12
-48,72,120,-12,-84,96,132,-37,46,43,-18,-13
-48,73,121,-12,-84,97,131,-37,46,43,-18,-13
-48,73,121,-12,-84,97,131,-37,45,43,-19,-13
-49,73,122,-12,-85,98,131,-35,45,43,-19,-13
-49,73,122,-12,-85,98,131,-35,45,43,-19,-13
-50,73,123,-11,-86,98,132,-34,45,43,-19,-12
-50,73,123,-11,-86,98,132,-37,45,42,-19,-13
-50,73,123,-11,-86,98,132,-41,45,41,-20,-13
-51,73,124,-11,-87,99,133,-44,44,41,-21,-14
-51,72,123,-10,-87,98,133,-44,43,41,-21,-14
-50,72,122,-11,-86,97,132,-44,43,41,-21,-13
-50,72,122,-11,-86,97,132,-42,44,42,-20,-13
-50,72,122,-11,-86,97,132,-38,44,42,-20,-12
-50,72,122,-11,-86,97,131,-33,45,43,-20,-12
-50,73,123,-11,-86,98,131,-31,45,44,-19,-12
-50,73,123,-11,-86,98,131,-32,46,44,-19,-12
-50,73,123,-11,-86,98,132,-35,47,44,-19,-12
-50,73,123,-11,-86,98,132,-36,47,43,-20,-13
-50,73,123,-11,-86,98,132,-36,47,43,-21,-14
-50,72,122,-11,-86,97,131,-37,47,43,-21,-14
-50,72,122,-11,-86,97,131,-37,47,42,-21,-14
-50,72,122,-11,-86,97,130,-36,47,42,-21,-15
-50,72,122,-11,-86,97,130,-35,46,42,-21,-15
-51,72,123,-10,-87,98,130,-35,45,42,-21,-14
-51,72,123,-10,-87,98,129,-36,45,41,-20,-14
-51,72,123,-10,-87,98,130,-36,44,41,-20,-14
-51,72,123,-10,-87,98,131,-37,44,41,-19,-14
-51,72,123,-10,-87,98,131,-37,43,40,-19,-15
-51,71,122,-10,-86,97,131,-36,44,40,-19,-14
-51,71,122,-10,-86,97,131,-36,44,40,-18,-14
-51,71,122,-10,-86,97,131,-36,45,40,-18,-14
-50,72,122,-11,-86,97,130,-37,45,39,-18,-15
-50,72,122,-11,-86,97,130,-36,45,40,-18,-14
-49,73,122,-12,-85,98,130,-36,44,39,-18,-14
-49,74,123,-12,-86,99,130,-34,44,40,-17,-14
-48,75,123,-13,-85,99,130,-35,43,40,-18,-14
-48,75,123,-13,-85,99,131,-37,43,40,-18,-14
-48,75,123,-13,-85,99,132,-41,43,41,-17,-14
-48,75,123,-13,-85,99,132,-42,44,41,-16,-14
-48,75,123,-13,-85,99,133,-42,45,41,-16,-13
-48,75,123,-13,-85,99,132,-41,46,41,-16,-13
-48,74,122,-13,-85,98,132,-38,48,42,-15,-13
-48,74,122,-13,-85,98,131,-35,49,42,-15,-13
-48,74,122,-13,-85,98,130,-31,48,42,-16,-13
-49,74,123,-12,-86,99,130,-29,47,42,-16,-13
-49,74,123,-12,-86,99,129,-30,46,42,-17,-14
-49,74,123,-12,-86,99,129,-31,46,42,-17,-14
-49,74,123,-12,-86,99,130,-32,46,42,-17,-14
-49,74,123,-12,-86,99,130,-32,46,43,-17,-14
-49,74,123,-12,-86,99,130,-32,47,43,-17,-13
-49,74,123,-12,-86,99,130,-33,47,43,-17,-13
-49,74,123,-12,-86,99,131,-34,46,43,-17,-13
-49,74,123,-12,-86,99,130,-34,45,43,-17,-13
-49,74,123,-12,-86,99,130,-35,44,42,-18,-13
-49,74,123,-12,-86,99,130,-35,43,41,-18,-14
-49,74,123,-12,-86,99,130,-35,43,41,-19,-14
-49,74,123,-12,-86,99,130,-35,43,40,-19,-14
-49,74,123,-12,-86,99,130,-36,43,40,-19,-14
-49,74,123,-12,-86,99,131,-37,44,40,-19,-13
-49,75,124,-13,-86,100,131,-37,44,40,-19,-13
-48,75,123,-13,-85,99,131,-37,43,39,-20,-14
-48,75,123,-13,-85,99,131,-37,43,40,-20,-13
-48,75,123,-13,-85,99,131,-37,44,40,-20,-13
-48,75,123,-13,-85,99,131,-37,44,40,-21,-14
-48,75,123,-13,-85,99,131,-37,44,40,-21,-14
-48,74,122,-13,-85,98,132,-36,45,41,-21,-13
-49,74,123,-12,-86,99,131,-36,44,42,-21,-14
-49,74,123,-12,-86,99,130,-37,44,42,-21,-14
-49,74,123,-12,-86,99,128,-36,44,41,-21,-14
-50,74,124,-12,-87,99,128,-35,44,41,-21,-14
-50,75,125,-12,-87,100,128,-33,44,41,-21,-14
-49,75,124,-13,-86,100,129,-33,45,42,-20,-14
-49,76,125,-13,-87,101,128,-34,44,41,-20,-14
-49,76,125,-13,-87,101,130,-33,45,41,-20,-14
-48,77,125,-14,-86,101,131,-32,45,42,-19,-13
-48,77,125,-14,-86,101,131,-33,46,42,-19,-13
-47,77,124,-15,-85,101,129,-36,45,41,-20,-14
-47,76,123,-14,-85,100,130,-37,45,41,-19,-13
-47,76,123,-14,-85,100,130,-38,45,41,-20,-14
-48,76,124,-14,-86,100,130,-38,44,41,-20,-14
-48,76,124,-14,-86,100,130,-38,44,41,-20,-14
-49,75,124,-13,-86,100,131,-36,45,42,-19,-14
-50,75,125,-12,-87,100,130,-35,44,41,-19,-14
-51,74,125,-11,-88,100,130,-33,45,42,-18,-14
-51,74,125,-11,-88,100,130,-33,45,42,-18,-14
-51,75,126,-12,-88,101,129,-35,44,41,-18,-14
-51,75,126,-12,-88,101,128,-36,43,41,-18,-15
-50,75,125,-12,-87,100,128,-36,43,41,-18,-14
-50,75,125,-12,-87,100,129,-36,43,42,-17,-14
-49,76,125,-13,-87,101,128,-36,43,42,-18,-15
-48,76,124,-14,-86,100,129,-36,43,43,-18,-14
-48,77,125,-14,-86,101,129,-36,43,43,-18,-15
-48,77,125,-14,-86,101,130,-36,44,43,-17,-14
-48,78,126,-15,-87,102,129,-37,44,43,-18,-15
-47,78,125,-15,-86,102,129,-36,45,43,-18,-15
-47,78,125,-15,-86,102,129,-35,45,43,-18,-14
-48,78,126,-15,-87,102,129,-35,45,42,-18,-15
-48,78,126,-15,-87,102,128,-35,44,42,-18,-15
-49,77,126,-14,-87,102,129,-34,44,42,-18,-15
-49,77,126,-14,-87,102,128,-35,43,42,-19,-15
-49,77,126,-14,-87,102,128,-36,42,42,-20,-16
-49,77,126,-14,-87,102,129,-35,42,42,-20,-16
-49,77,126,-14,-87,102,129,-35,43,42,-20,-15
-48,78,126,-15,-87,102,129,-36,42,42,-20,-15
-48,78,126,-15,-87,102,129,-37,43,42,-20,-15
-47,79,126,-16,-86,103,130,-37,43,42,-19,-14
-47,79,126,-16,-86,103,130,-38,43,42,-19,-14
-47,79,126,-16,-86,103,130,-40,43,42,-19,-14
-47,79,126,-16,-86,103,129,-40,44,42,-19,-15
-47,79,126,-16,-86,103,129,-38,45,42,-20,-15
-47,79,126,-16,-86,103,128,-34,45,42,-20,-15
-47,78,125,-15,-86,102,126,-31,45,43,-21,-15
-47,78,125,-15,-86,102,126,-30,45,43,-21,-16
-48,78,126,-15,-87,102,126,-29,44,42,-22,-16
-48,78,126,-15,-87,102,126,-28,43,42,-23,-16
-48,78,126,-15,-87,102,126,-30,43,41,-23,-17
-48,78,126,-15,-87,102,125,-31,43,41,-23,-17
-48,78,126,-15,-87,102,125,-31,43,41,-23,-16
-48,79,127,-15,-87,103,125,-30,43,41,-23,-16
-48,79,127,-15,-87,103,126,-29,44,42,-23,-15
-48,80,128,-16,-88,104,127,-29,45,43,-22,-15
-48,81,129,-16,-88,105,127,-31,44,42,-22,-15
-48,81,129,-16,-88,105,128,-32,45,43,-22,-15
-47,82,129,-17,-88,106,130,-33,45,44,-21,-14
-47,83,130,-18,-88,107,129,-34,45,44,-21,-15
-47,83,130,-18,-88,107,129,-32,46,45,-20,-14
-47,84,131,-18,-89,108,130,-31,47,46,-19,-14
-47,85,132,-19,-89,109,130,-29,48,46,-18,-13
-47,86,133,-19,-90,110,130,-28,48,46,-18,-13
-47,88,135,-20,-91,112,130,-27,49,47,-18,-13
-47,88,135,-20,-91,112,131,-27,49,47,-17,-12
-47,89,136,-21,-91,113,130,-29,49,46,-18,-13
-46,90,136,-22,-91,113,131,-29,49,47,-17,-12
-46,91,137,-22,-91,114,130,-29,49,46,-17,-12
-46,92,138,-23,-92,115,130,-29,49,47,-17,-12
-46,93,139,-23,-92,116,131,-28,50,47,-16,-11
-45,94,139,-24,-92,117,131,-29,50,46,-17,-12
-45,94,139,-24,-92,117,131,-28,50,46,-17,-11
-46,94,140,-24,-93,117,132,-28,50,46,-17,-12
-46,93,139,-23,-92,116,133,-27,50,47,-16,-11
-46,93,139,-23,-92,116,133,-27,50,46,-16,-11
-46,93,139,-23,-92,116,133,-28,49,46,-16,-11
-46,93,139,-23,-92,116,132,-28,49,46,-16,-11
-46,94,140,-24,-93,117,131,-28,49,46,-16,-12
-46,95,141,-24,-93,118,131,-27,50,48,-15,-10
-45,97,142,-26,-93,120,131,-26,51,49,-14,-10
-44,100,144,-28,-94,122,131,-26,53,51,-13,-9
-43,102,145,-29,-94,124,131,-26,54,52,-12,-7
-41,105,146,-32,-93,126,130,-26,53,52,-12,-7
-41,106,147,-32,-94,127,130,-27,54,53,-11,-6
-41,106,147,-32,-94,127,128,-29,53,53,-11,-6
-41,106,147,-32,-94,127,126,-32,51,52,-11,-6
-42,106,148,-32,-95,127,124,-34,50,51,-12,-6
-43,104,147,-30,-95,126,123,-35,49,50,-12,-6
-44,103,147,-29,-95,125,122,-37,48,49,-13,-6
-44,101,145,-28,-94,123,121,-41,46,48,-14,-7
-44,100,144,-28,-94,122,121,-43,46,48,-14,-7
-43,99,142,-28,-92,121,122,-45,46,48,-14,-7
-42,99,141,-28,-91,120,121,-45,45,46,-15,-8
-41,98,139,-28,-90,119,120,-43,46,46,-15,-8
-39,99,138,-30,-88,119,119,-40,46,46,-15,-8
-38,99,137,-30,-87,118,118,-36,47,48,-15,-8
-38,99,137,-30,-87,118,118,-33,48,48,-14,-7
-38,99,137,-30,-87,118,118,-30,48,49,-15,-8
-39,98,137,-29,-88,118,118,-28,49,49,-15,-7
-40,97,137,-28,-88,117,119,-29,48,49,-15,-8
-42,96,138,-27,-90,117,120,-30,49,49,-16,-8
-43,94,137,-25,-90,116,121,-29,48,48,-16,-9
-43,92,135,-24,-89,114,122,-28,47,47,-17,-10
-44,89,133,-22,-88,111,123,-28,45,46,-18,-11
-44,87,131,-21,-87,109,123,-29,43,44,-20,-12
-45,85,130,-20,-87,108,122,-33,40,42,-21,-13
-46,83,129,-18,-87,106,122,-35,38,40,-23,-14
-46,81,127,-17,-86,104,123,-36,36,40,-24,-15
-47,80,127,-16,-87,104,122,-37,35,39,-25,-16
-47,79,126,-16,-86,103,123,-36,36,40,-24,-16
-47,80,127,-16,-87,104,122,-36,36,39,-25,-17
-46,80,126,-17,-86,103,124,-34,38,40,-25,-16
-45,81,126,-18,-85,104,124,-32,39,40,-25,-17
-45,82,127,-18,-86,105,124,-31,40,41,-24,-16
-44,83,127,-19,-85,105,124,-33,40,41,-25,-16
-44,83,127,-19,-85,105,125,-33,40,41,-24,-16
-44,83,127,-19,-85,105,125,-33,39,41,-24,-16
-44,83,127,-19,-85,105,124,-34,39,41,-24,-16
-44,83,127,-19,-85,105,124,-34,38,41,-24,-16
-44,82,126,-19,-85,104,124,-34,39,41,-24,-16
-45,81,126,-18,-85,104,123,-34,38,41,-24,-16
-45,81,126,-18,-85,104,123,-34,38,40,-24,-17
-46,80,126,-17,-86,103,123,-33,39,40,-24,-16
-46,80,126,-17,-86,103,123,-33,39,40,-24,-16
-47,80,127,-16,-87,104,123,-33,38,40,-24,-16
-47,80,127,-16,-87,104,124,-33,39,40,-24,-16
-46,80,126,-17,-86,103,124,-33,39,40,-23,-16
-46,81,127,-17,-86,104,125,-32,40,41,-22,-15
-45,81,126,-18,-85,104,125,-32,40,41,-23,-16
-44,82,126,-19,-85,104,125,-32,41,41,-22,-15
-44,82,126,-19,-85,104,125,-32,42,41,-23,-15
-44,82,126,-19,-85,104,124,-32,42,41,-23,-16
-44,81,125,-18,-84,103,124,-32,42,41,-23,-16
-44,81,125,-18,-84,103,124,-32,41,41,-24,-16
-44,82,126,-19,-85,104,124,-31,41,41,-24,-16
-44,82,126,-19,-85,104,124,-30,41,41,-23,-16
-44,83,127,-19,-85,105,124,-30,39,40,-24,-17
-43,83,126,-20,-84,105,125,-30,38,41,-23,-16
-43,84,127,-20,-85,106,126,-32,38,41,-23,-16
-43,84,127,-20,-85,106,126,-35,37,41,-23,-16
-44,84,128,-20,-86,106,126,-39,38,41,-23,-16
-44,84,128,-20,-86,106,126,-39,39,41,-24,-16
-44,84,128,-20,-86,106,126,-38,40,41,-24,-16
-44,84,128,-20,-86,106,125,-35,42,42,-24,-16
-44,85,129,-20,-86,107,125,-32,43,42,-23,-15
-43,85,128,-21,-85,107,124,-29,43,42,-24,-16
-43,85,128,-21,-85,107,123,-25,43,42,-24,-16
-43,85,128,-21,-85,107,123,-24,44,43,-24,-15
-43,85,128,-21,-85,107,123,-26,44,43,-23,-15
-43,85,128,-21,-85,107,123,-27,44,43,-23,-15
-43,84,127,-20,-85,106,123,-28,45,44,-23,-15
-43,84,127,-20,-85,106,124,-29,45,44,-24,-16
-44,84,128,-20,-86,106,125,-29,45,43,-25,-17
-46,83,129,-18,-87,106,128,-27,47,42,-27,-19
-47,82,129,-17,-88,106,133,-22,50,41,-29,-21
-48,79,127,-15,-87,103,140,-13,54,39,-32,-24
-48,75,123,-13,-85,99,148,1,61,38,-36,-28
-48,72,120,-12,-84,96,155,17,70,36,-41,-33
-47,68,115,-10,-81,92,163,34,80,36,-44,-37
-45,65,110,-10,-77,88,171,49,90,37,-46,-39
-43,64,107,-10,-75,86,176,59,98,38,-48,-41
-41,66,107,-12,-74,87,179,68,107,43,-45,-39
-38,72,110,-17,-74,91,178,74,116,52,-40,-34
-32,81,113,-24,-72,97,174,79,126,65,-30,-27
-24,94,118,-35,-71,106,167,83,139,83,-16,-17
-15,110,125,-47,-70,118,160,87,158,108,3,-3
-4,131,135,-63,-69,133,148,89,181,139,25,13
7,157,150,-82,-71,154,135,84,205,176,53,33
16,188,172,-102,-78,180,119,68,223,217,84,55
24,221,197,-122,-86,209,103,44,232,261,120,81
30,256,226,-143,-98,241,83,7,229,307,156,107
36,290,254,-163,-109,272,61,-40,214,360,197,135
42,322,280,-182,-119,301,36,-98,188,418,237,161
46,346,300,-196,-127,323,13,-156,156,480,277,187
47,362,315,-204,-134,339,-7,-212,117,536,310,207
44,367,323,-205,-139,345,-20,-258,73,580,334,221
38,362,324,-200,-143,343,-25,-290,26,603,346,226
27,348,321,-187,-147,335,-22,-308,-22,598,343,223
13,329,316,-171,-151,323,-13,-311,-69,561,324,212
-3,305,308,-151,-155,307,2,-300,-111,489,291,194
-18,278,296,-130,-157,287,16,-283,-146,392,247,169
-30,252,282,-111,-156,267,25,-265,-172,286,198,142
-41,227,268,-93,-154,248,33,-246,-182,189,152,117
-49,202,251,-76,-150,227,39,-225,-180,109,108,91
-56,177,233,-60,-144,205,47,-205,-171,50,70,67
-60,154,214,-47,-137,184,54,-188,-159,12,39,46
-63,134,197,-35,-130,166,62,-171,-144,-3,17,29
-64,118,182,-27,-123,150,70,-156,-128,-5,0,13
-65,103,168,-19,-116,136,80,-140,-113,-1,-11,2
-65,92,157,-13,-111,125,86,-130,-101,-2,-20,-8
-65,85,150,-10,-107,118,92,-121,-90,-1,-25,-13
-65,79,144,-7,-104,112,98,-112,-77,3,-28,-17
-64,76,140,-6,-102,108,102,-105,-64,5,-30,-20
-63,74,137,-5,-100,106,106,-95,-48,11,-30,-21
"
		-60","
		75","
		135","
		-7","
		-97","
		105","
		108","
		-87","
		-34","
		16","
		-29","
		-21"
-57,78,135,-10,-96,107,111,-77,-19,22,-27,-20
-54,81,135,-13,-94,108,113,-67,-5,28,-25,-18
-52,85,137,-16,-94,111,114,-57,7,33,-21,-16
-49,90,139,-20,-94,115,116,-47,18,38,-18,-13
-47,94,141,-23,-94,118,117,-40,27,42,-16,-12
-46,96,142,-25,-94,119,120,-36,34,44,-15,-10
-45,97,142,-26,-93,120,122,-32,39,45,-15,-11
-44,97,141,-26,-92,119,124,-27,45,47,-14,-11
-43,97,140,-27,-91,119,125,-24,49,46,-16,-12
-42,97,139,-27,-90,118,126,-21,52,46,-17,-13
-42,97,139,-27,-90,118,128,-18,54,46,-17,-14
-41,97,138,-28,-89,118,128,-16,56,46,-18,-14
-41,97,138,-28,-89,118,128,-14,57,46,-18,-15
-41,97,138,-28,-89,118,128,-13,58,46,-18,-14
-41,98,139,-28,-90,119,127,-14,58,46,-18,-15
-41,98,139,-28,-90,119,128,-13,59,47,-18,-14
-41,98,139,-28,-90,119,127,-12,59,48,-18,-14
-41,97,138,-28,-89,118,128,-10,61,49,-17,-13
-41,97,138,-28,-89,118,128,-9,63,49,-17,-13
-41,96,137,-27,-89,117,128,-9,64,49,-18,-14
-42,96,138,-27,-90,117,128,-8,65,49,-18,-14
-42,96,138,-27,-90,117,128,-9,66,49,-18,-14
-41,96,137,-27,-89,117,128,-9,66,49,-18,-14
-41,97,138,-28,-89,118,128,-10,65,50,-18,-14
-41,98,139,-28,-90,119,127,-12,63,49,-18,-15
-40,99,139,-29,-89,119,127,-13,62,50,-17,-14
-40,99,139,-29,-89,119,128,-13,62,50,-16,-13
-39,99,138,-30,-88,119,127,-14,63,50,-17,-14
-39,100,139,-30,-89,120,128,-12,65,50,-17,-14
-39,100,139,-30,-89,120,128,-10,67,51,-16,-13
-38,100,138,-31,-88,119,128,-8,70,52,-16,-13
-38,100,138,-31,-88,119,128,-5,71,52,-16,-13
-37,101,138,-32,-87,120,127,-4,72,52,-16,-13
-37,101,138,-32,-87,120,127,-4,72,53,-15,-12
-37,102,139,-32,-88,121,127,-4,72,53,-14,-12
-36,103,139,-33,-87,121,126,-6,71,53,-14,-11
-36,103,139,-33,-87,121,127,-7,72,54,-13,-11
-36,103,139,-33,-87,121,128,-7,72,55,-13,-10
-37,103,140,-33,-88,122,128,-7,72,55,-13,-10
-37,103,140,-33,-88,122,128,-7,73,55,-13,-11
-37,102,139,-32,-88,121,129,-6,74,55,-12,-10
-38,102,140,-32,-89,121,129,-6,74,55,-12,-11
-38,102,140,-32,-89,121,128,-4,74,55,-12,-11
-38,102,140,-32,-89,121,127,-3,74,55,-12,-10
-38,102,140,-32,-89,121,126,-3,74,56,-11,-10
-38,102,140,-32,-89,121,125,-3,74,56,-10,-10
-37,102,139,-32,-88,121,125,-2,74,56,-10,-10
-37,102,139,-32,-88,121,125,-2,75,57,-10,-10
-37,102,139,-32,-88,121,125,-2,75,56,-11,-10
-37,102,139,-32,-88,121,126,-1,76,56,-11,-10
-37,102,139,-32,-88,121,127,-1,76,56,-11,-10
-36,103,139,-33,-87,121,128,-3,76,56,-12,-10
-36,104,140,-34,-88,122,128,-6,75,57,-11,-9
-35,105,140,-35,-87,123,128,-9,74,57,-11,-9
-35,106,141,-35,-88,124,128,-9,74,59,-9,-8
-34,107,141,-36,-87,124,127,-9,74,59,-9,-7
-34,107,141,-36,-87,124,127,-6,76,60,-8,-7
-33,107,140,-37,-86,124,127,-3,78,61,-7,-6
-33,107,140,-37,-86,124,127,1,81,62,-7,-6
-33,107,140,-37,-86,124,127,5,83,63,-7,-6
-33,107,140,-37,-86,124,126,6,84,63,-7,-6
-34,107,141,-36,-87,124,126,5,84,64,-7,-6
-34,108,142,-37,-88,125,126,3,83,64,-6,-6
-34,109,143,-37,-88,126,126,1,81,64,-7,-6
-33,109,142,-38,-87,126,126,2,80,65,-6,-6
-33,109,142,-38,-87,126,126,2,80,65,-5,-5
-33,109,142,-38,-87,126,126,3,81,66,-5,-5
-33,109,142,-38,-87,126,126,4,82,66,-5,-5
-33,109,142,-38,-87,126,126,4,84,66,-5,-5
-34,109,143,-37,-88,126,126,4,85,66,-5,-5
-33,109,142,-38,-87,126,125,5,87,67,-5,-5
-33,110,143,-38,-88,127,126,5,88,67,-5,-5
-32,110,142,-39,-87,126,125,5,87,67,-5,-5
-31,112,143,-40,-87,128,125,3,87,68,-4,-5
-30,113,143,-41,-86,128,125,2,88,69,-2,-4
-30,114,144,-42,-87,129,125,1,88,69,-2,-4
-30,114,144,-42,-87,129,125,3,89,71,-1,-4
-30,114,144,-42,-87,129,125,5,90,71,0,-3
-30,114,144,-42,-87,129,124,7,91,72,1,-3
-31,114,145,-41,-88,130,125,10,93,73,2,-2
-31,114,145,-41,-88,130,126,13,95,74,3,-2
-31,114,145,-41,-88,130,126,15,96,76,4,-1
-31,115,146,-42,-88,131,125,14,96,76,4,-2
-30,116,146,-43,-88,131,126,15,97,78,6,0
-30,117,147,-43,-88,132,125,15,98,79,6,0
-29,118,147,-44,-88,133,125,17,99,81,8,1
-28,118,146,-45,-87,132,124,18,100,81,8,1
-27,119,146,-46,-86,133,125,19,102,82,8,1
-27,119,146,-46,-86,133,125,20,104,82,9,1
-27,119,146,-46,-86,133,125,19,106,83,9,1
-26,120,146,-47,-86,133,125,16,106,82,8,0
-26,121,147,-47,-86,134,126,14,108,83,9,1
-26,122,148,-48,-87,135,125,13,108,85,9,1
-26,123,149,-48,-87,136,126,14,109,87,11,2
-26,124,150,-49,-88,137,126,17,111,90,13,3
-25,125,150,-50,-87,138,125,20,111,91,14,4
-24,126,150,-51,-87,138,124,24,112,93,14,4
-24,126,150,-51,-87,138,125,30,115,95,16,5
-23,126,149,-51,-86,138,125,33,117,96,17,5
-23,127,150,-52,-86,139,125,34,120,98,17,6
-23,127,150,-52,-86,139,126,34,123,100,18,6
-23,128,151,-52,-87,140,126,34,125,101,18,6
-22,128,150,-53,-86,139,126,35,127,104,19,7
-22,129,151,-53,-86,140,126,37,129,107,20,8
-21,130,151,-54,-86,141,125,38,131,109,20,8
-20,131,151,-55,-85,141,125,40,132,110,21,8
-19,132,151,-56,-85,142,125,42,134,112,22,9
-19,133,152,-57,-85,143,125,44,136,113,22,9
-18,134,152,-58,-85,143,127,46,138,115,24,10
-18,135,153,-58,-85,144,128,45,140,116,24,11
-17,136,153,-59,-85,145,129,45,143,119,26,12
-16,137,153,-60,-84,145,129,45,144,122,27,13
-15,139,154,-62,-84,147,128,47,146,125,28,14
-14,140,154,-63,-84,147,127,50,148,128,30,15
-12,142,154,-65,-83,148,126,54,151,132,32,16
-10,144,154,-67,-82,149,125,60,154,135,34,17
-9,145,154,-68,-81,150,125,65,158,138,35,18
-8,146,154,-69,-81,150,125,67,161,141,36,18
-7,148,155,-70,-81,152,126,67,164,143,37,19
-7,149,156,-71,-81,153,128,67,168,147,40,21
-7,150,157,-71,-82,154,129,68,171,151,42,22
-7,152,159,-72,-83,156,129,69,174,154,44,23
-6,153,159,-73,-82,156,128,71,176,158,46,24
-5,155,160,-75,-82,158,127,74,179,161,49,25
-4,157,161,-76,-82,159,126,78,181,165,51,27
-2,159,161,-78,-81,160,125,79,185,169,54,28
0,161,161,-80,-80,161,125,79,188,172,56,30
1,162,161,-81,-80,162,124,79,191,176,58,31
2,164,162,-83,-80,163,124,80,195,179,60,32
2,165,163,-83,-80,164,124,83,199,184,63,34
2,167,165,-84,-81,166,123,84,202,188,65,35
3,169,166,-86,-81,168,122,86,204,192,67,36
3,171,168,-87,-82,170,121,87,206,196,69,37
4,173,169,-88,-82,171,120,89,208,199,71,39
5,175,170,-90,-82,173,119,89,210,203,74,40
7,177,170,-92,-81,174,119,90,212,206,76,41
8,178,170,-93,-81,174,118,91,214,209,78,42
10,179,169,-94,-79,174,117,92,216,212,80,43
11,181,170,-96,-79,176,117,90,218,215,82,44
12,182,170,-97,-79,176,118,88,220,218,84,45
13,183,170,-98,-78,177,117,86,221,221,85,46
13,184,171,-98,-79,178,117,85,222,224,87,47
13,185,172,-99,-79,179,115,83,223,226,88,47
12,186,174,-99,-81,180,114,83,224,229,90,49
12,188,176,-100,-82,182,113,84,226,233,92,50
12,189,177,-100,-82,183,112,86,227,235,94,51
13,190,177,-101,-82,184,111,87,228,239,96,53
13,191,178,-102,-82,185,111,86,229,240,97,53
14,192,178,-103,-82,185,111,84,230,242,98,54
14,192,178,-103,-82,185,111,82,231,243,99,55
14,193,179,-103,-82,186,109,77,230,243,98,55
14,193,179,-103,-82,186,107,73,229,243,98,55
14,193,179,-103,-82,186,105,69,227,242,98,54
14,193,179,-103,-82,186,104,64,224,241,97,54
14,193,179,-103,-82,186,102,61,221,241,96,54
14,193,179,-103,-82,186,101,59,218,239,96,53
14,192,178,-103,-82,185,102,57,216,238,95,53
13,191,178,-102,-82,185,103,55,213,236,93,52
12,190,178,-101,-83,184,103,53,211,233,92,51
11,188,177,-99,-83,183,103,51,208,229,90,50
9,186,177,-97,-84,182,103,49,205,224,87,48
7,184,177,-95,-85,181,103,46,201,219,84,47
5,182,177,-93,-86,180,103,40,196,213,81,44
3,179,176,-91,-86,178,103,34,192,207,78,43
2,177,175,-89,-86,176,103,29,186,201,74,40
1,174,173,-87,-86,174,102,27,181,195,71,38
-1,172,173,-85,-87,173,102,26,175,189,67,36
-2,169,171,-83,-86,170,103,26,171,183,64,34
-3,166,169,-81,-86,168,102,25,164,175,60,31
-5,163,168,-79,-86,166,103,23,159,170,56,29
-8,160,168,-76,-88,164,104,21,154,164,53,27
-10,157,167,-73,-88,162,105,17,147,157,48,24
-11,154,165,-71,-88,160,106,14,142,151,45,22
-13,152,165,-69,-89,159,106,11,137,145,42,19
-14,150,164,-68,-89,157,107,10,132,140,39,17
-15,147,162,-66,-88,155,107,11,126,134,36,15
-16,144,160,-64,-88,152,109,11,122,129,33,14
-18,141,159,-61,-88,150,109,9,116,123,30,11
-19,138,157,-59,-88,148,111,6,113,118,27,10
-21,136,157,-57,-89,147,111,3,108,113,24,7
-22,133,155,-55,-88,144,111,0,104,108,20,5
-24,130,154,-53,-89,142,112,0,101,104,18,4
-25,129,154,-52,-89,142,113,0,99,100,15,2
-26,127,153,-50,-89,140,113,1,95,97,13,0
-27,125,152,-49,-89,139,113,2,91,93,11,-1
-28,124,152,-48,-90,138,113,0,86,89,8,-4
-29,122,151,-46,-90,137,114,-2,83,86,6,-5
-30,120,150,-45,-90,135,115,-4,79,83,5,-6
-31,119,150,-44,-90,135,117,-6,76,80,3,-7
-32,118,150,-43,-91,134,118,-7,74,77,2,-8
-32,117,149,-42,-90,133,117,-9,72,74,0,-9
-32,116,148,-42,-90,132,116,-9,70,72,-1,-10
-32,115,147,-41,-89,131,116,-7,69,70,-2,-10
-33,115,148,-41,-90,132,116,-6,67,68,-3,-11
-33,114,147,-40,-90,131,116,-6,65,66,-4,-12
-34,113,147,-39,-90,130,116,-6,65,65,-4,-12
-35,113,148,-39,-91,131,117,-9,62,63,-5,-13
-35,112,147,-38,-91,130,119,-10,61,62,-6,-13
-36,110,146,-37,-91,128,120,-11,60,61,-6,-13
-37,109,146,-36,-91,128,119,-12,59,60,-8,-15
-38,108,146,-35,-92,127,119,-12,59,59,-8,-15
-38,107,145,-34,-91,126,118,-11,58,58,-9,-16
-38,107,145,-34,-91,126,118,-10,58,57,-10,-16
-38,107,145,-34,-91,126,118,-9,58,57,-9,-16
-38,108,146,-35,-92,127,119,-8,59,57,-9,-15
-37,109,146,-36,-91,128,119,-9,58,56,-9,-15
-36,110,146,-37,-91,128,120,-8,58,56,-8,-14
-35,111,146,-38,-90,129,120,-8,58,56,-8,-15
-36,111,147,-37,-91,129,120,-7,58,56,-8,-14
-36,111,147,-37,-91,129,120,-7,57,56,-9,-15
-37,111,148,-37,-92,130,121,-6,57,56,-9,-15
-37,111,148,-37,-92,130,120,-5,57,56,-9,-15
-38,111,149,-36,-93,130,119,-5,57,56,-9,-15
-38,111,149,-36,-93,130,119,-4,57,55,-10,-16
-38,111,149,-36,-93,130,119,-3,57,55,-10,-16
-38,111,149,-36,-93,130,118,-1,58,54,-10,-16
-38,111,149,-36,-93,130,118,0,58,54,-10,-16
-39,111,150,-36,-94,131,118,0,59,53,-11,-17
-39,111,150,-36,-94,131,118,-2,59,53,-11,-17
-38,111,149,-36,-93,130,119,-4,59,53,-12,-17
-38,111,149,-36,-93,130,120,-6,59,53,-12,-17
-37,112,149,-37,-93,131,120,-8,57,52,-12,-17
-37,113,150,-38,-93,132,120,-8,56,52,-12,-17
-36,114,150,-39,-93,132,120,-8,54,52,-12,-17
-36,114,150,-39,-93,132,120,-6,54,52,-11,-17
-36,115,151,-39,-93,133,119,-3,54,52,-11,-16
-36,115,151,-39,-93,133,119,-2,55,53,-11,-16
-37,115,152,-39,-94,134,119,-2,55,53,-11,-16
-37,114,151,-38,-94,133,120,-2,58,54,-10,-15
-37,114,151,-38,-94,133,121,-2,59,53,-10,-16
-37,113,150,-38,-93,132,121,-2,59,53,-10,-16
-37,113,150,-38,-93,132,121,-3,59,53,-10,-16
-37,113,150,-38,-93,132,120,-3,59,52,-10,-16
-37,113,150,-38,-93,132,118,-4,58,52,-10,-16
-37,113,150,-38,-93,132,118,-4,58,52,-9,-16
-37,114,151,-38,-94,133,118,-4,58,52,-9,-16
-37,114,151,-38,-94,133,117,-4,57,51,-9,-15
-37,114,151,-38,-94,133,117,-3,58,51,-9,-16
-37,114,151,-38,-94,133,118,-2,58,50,-9,-16
-36,114,150,-39,-93,132,118,-1,58,49,-10,-17
-36,114,150,-39,-93,132,118,0,58,48,-10,-17
-36,114,150,-39,-93,132,118,0,59,48,-10,-16
-36,114,150,-39,-93,132,118,-1,59,47,-10,-16
-35,115,150,-40,-92,133,118,-2,58,47,-10,-16
-35,115,150,-40,-92,133,118,-3,57,46,-10,-16
-35,115,150,-40,-92,133,118,-5,55,46,-9,-16
-35,116,151,-40,-93,134,117,-7,54,44,-10,-17
-35,116,151,-40,-93,134,117,-8,53,44,-10,-17
-35,116,151,-40,-93,134,117,-6,53,44,-10,-17
-35,116,151,-40,-93,134,117,-3,54,44,-10,-17
-36,116,152,-40,-94,134,118,0,56,46,-8,-16
-36,116,152,-40,-94,134,118,2,57,46,-8,-16
-35,116,151,-40,-93,134,117,0,56,44,-9,-16
-35,116,151,-40,-93,134,116,-1,55,44,-8,-16
-35,116,151,-40,-93,134,116,-3,55,44,-8,-16
-35,116,151,-40,-93,134,116,-3,54,43,-9,-16
-35,115,150,-40,-92,133,116,-2,55,44,-8,-16
-35,114,149,-39,-92,132,115,-1,55,43,-8,-16
-35,114,149,-39,-92,132,114,0,55,42,-9,-17
-36,113,149,-38,-92,131,115,3,56,43,-9,-17
-36,113,149,-38,-92,131,115,3,56,42,-10,-17
-36,113,149,-38,-92,131,115,1,55,41,-10,-17
-36,112,148,-38,-92,130,115,-2,54,40,-11,-18
-36,113,149,-38,-92,131,115,-3,53,39,-11,-18
-36,113,149,-38,-92,131,115,-3,52,38,-11,-18
-36,113,149,-38,-92,131,116,-3,51,38,-11,-17
-36,113,149,-38,-92,131,115,-3,50,37,-11,-18
-36,112,148,-38,-92,130,115,-3,49,37,-12,-18
-36,112,148,-38,-92,130,115,-3,48,36,-13,-18
-36,111,147,-37,-91,129,115,-4,47,35,-14,-19
-36,110,146,-37,-91,128,115,-5,47,34,-13,-19
-36,109,145,-36,-90,127,114,-7,46,33,-14,-20
-36,109,145,-36,-90,127,114,-10,46,32,-15,-20
-37,108,145,-35,-91,127,116,-10,46,32,-15,-20
-37,109,146,-36,-91,128,115,-11,44,31,-16,-21
-38,109,147,-35,-92,128,116,-10,44,32,-14,-20
-38,110,148,-36,-93,129,116,-10,43,31,-15,-21
-38,110,148,-36,-93,129,116,-7,42,31,-15,-21
-38,110,148,-36,-93,129,115,-5,42,31,-15,-21
-38,110,148,-36,-93,129,115,-4,43,31,-15,-21
-37,110,147,-36,-92,129,115,-6,44,31,-15,-21
-37,110,147,-36,-92,129,115,-7,44,30,-15,-21
-37,109,146,-36,-91,128,115,-7,44,29,-16,-21
-37,109,146,-36,-91,128,115,-7,44,29,-16,-22
-37,108,145,-35,-91,127,116,-7,44,29,-15,-21
-38,108,146,-35,-92,127,116,-7,43,29,-16,-22
-38,108,146,-35,-92,127,116,-6,42,28,-16,-22
-38,108,146,-35,-92,127,115,-5,42,28,-16,-22
-38,108,146,-35,-92,127,116,-6,42,28,-16,-22
-38,107,145,-34,-91,126,116,-8,41,27,-16,-22
-37,107,144,-35,-90,126,117,-9,41,27,-17,-22
-37,107,144,-35,-90,126,117,-10,40,26,-17,-22
-38,107,145,-34,-91,126,117,-10,40,25,-17,-22
-38,107,145,-34,-91,126,116,-9,39,24,-18,-23
-38,106,144,-34,-91,125,117,-7,40,24,-18,-23
-39,106,145,-33,-92,126,117,-7,39,23,-18,-23
-39,106,145,-33,-92,126,117,-8,38,23,-19,-23
-39,106,145,-33,-92,126,117,-10,38,23,-19,-24
-40,106,146,-33,-93,126,118,-13,38,23,-19,-24
"
		-40","
		106","
		146","
		-33","
		-93","
		126","
		118","
		-15","
		38","
		22","
		-19","
		-25"
-40,105,145,-32,-92,125,118,-15,39,23,-19,-24
-40,105,145,-32,-92,125,118,-15,39,23,-19,-24
-40,104,144,-32,-92,124,117,-13,38,23,-19,-24
-40,104,144,-32,-92,124,116,-11,37,22,-19,-24
-40,104,144,-32,-92,124,115,-9,37,22,-19,-24
-40,104,144,-32,-92,124,115,-7,36,22,-19,-24
-40,103,143,-31,-91,123,115,-7,36,21,-19,-24
-40,103,143,-31,-91,123,115,-8,36,21,-19,-24
-40,102,142,-31,-91,122,116,-8,37,21,-19,-24
-41,102,143,-30,-92,123,116,-10,37,21,-19,-25
-41,102,143,-30,-92,123,116,-12,36,20,-20,-25
-41,102,143,-30,-92,123,116,-13,36,19,-20,-26
-41,102,143,-30,-92,123,116,-14,35,19,-21,-26
-41,102,143,-30,-92,123,116,-13,34,18,-21,-26
-41,102,143,-30,-92,123,116,-13,33,18,-22,-27
-41,101,142,-30,-91,122,115,-13,32,17,-22,-27
-42,101,143,-29,-92,122,116,-14,32,18,-21,-26
-42,101,143,-29,-92,122,117,-16,30,18,-21,-26
-41,101,142,-30,-91,122,116,-18,29,18,-22,-27
-41,101,142,-30,-91,122,115,-17,30,19,-21,-27
-40,101,141,-30,-90,121,115,-16,31,20,-21,-26
-40,102,142,-31,-91,122,115,-14,33,20,-21,-26
-39,102,141,-31,-90,122,113,-12,33,20,-22,-27
-39,102,141,-31,-90,122,112,-8,34,19,-22,-27
-38,102,140,-32,-89,121,112,-6,36,19,-23,-27
-38,102,140,-32,-89,121,113,-6,36,19,-23,-27
-39,102,141,-31,-90,122,113,-9,36,18,-24,-27
-39,101,140,-31,-89,121,114,-11,36,19,-23,-27
-40,101,141,-30,-90,121,115,-11,36,18,-24,-27
-40,101,141,-30,-90,121,115,-11,36,18,-24,-27
-41,101,142,-30,-91,122,115,-13,36,18,-25,-28
-41,101,142,-30,-91,122,115,-15,35,17,-25,-28
-41,101,142,-30,-91,122,115,-16,35,17,-25,-28
-41,101,142,-30,-91,122,114,-15,35,17,-25,-28
-41,101,142,-30,-91,122,114,-13,34,17,-25,-28
-40,101,141,-30,-90,121,114,-12,33,18,-25,-28
-40,101,141,-30,-90,121,114,-12,32,18,-24,-28
-40,101,141,-30,-90,121,114,-11,31,17,-24,-28
-40,100,140,-30,-90,120,114,-11,31,17,-25,-28
-40,100,140,-30,-90,120,114,-12,31,17,-25,-28
-40,100,140,-30,-90,120,114,-13,31,16,-25,-28
-41,99,140,-29,-90,120,115,-13,33,17,-25,-28
-41,100,141,-29,-91,121,115,-13,33,17,-25,-28
-41,100,141,-29,-91,121,115,-11,33,17,-25,-28
-41,100,141,-29,-91,121,114,-9,33,17,-25,-28
-42,100,142,-29,-92,121,113,-8,32,17,-25,-28
-42,100,142,-29,-92,121,113,-9,32,17,-24,-28
-42,100,142,-29,-92,121,113,-10,31,16,-24,-29
-42,100,142,-29,-92,121,114,-10,30,15,-25,-29
-42,100,142,-29,-92,121,115,-11,30,15,-25,-29
-42,100,142,-29,-92,121,116,-12,30,14,-25,-29
-41,100,141,-29,-91,121,117,-12,29,14,-25,-29
-41,100,141,-29,-91,121,118,-14,29,15,-25,-29
-42,100,142,-29,-92,121,118,-16,28,15,-26,-29
-41,100,141,-29,-91,121,117,-17,28,15,-25,-29
-41,99,140,-29,-90,120,116,-18,28,15,-25,-29
-41,99,140,-29,-90,120,114,-18,28,15,-26,-29
-42,98,140,-28,-91,119,114,-16,30,16,-26,-29
-42,97,139,-27,-90,118,113,-15,30,15,-26,-30
-42,96,138,-27,-90,117,113,-13,31,14,-27,-31
-43,96,139,-26,-91,118,114,-10,33,15,-26,-30
-42,97,139,-27,-90,118,114,-8,33,14,-27,-31
-42,98,140,-28,-91,119,115,-6,33,14,-26,-30
-41,99,140,-29,-90,120,115,-8,31,13,-27,-30
-41,100,141,-29,-91,121,115,-10,31,14,-26,-29
-40,100,140,-30,-90,120,114,-13,29,13,-27,-30
-41,100,141,-29,-91,121,115,-12,29,14,-26,-29
-42,100,142,-29,-92,121,115,-13,28,13,-27,-30
-42,100,142,-29,-92,121,115,-14,28,13,-27,-30
-42,99,141,-28,-91,120,114,-13,29,13,-28,-31
-42,99,141,-28,-91,120,114,-11,30,13,-28,-31
-43,99,142,-28,-92,121,115,-8,32,14,-27,-30
-42,99,141,-28,-91,120,114,-9,31,13,-28,-31
-41,99,140,-29,-90,120,114,-9,32,13,-28,-31
-42,99,141,-28,-91,120,114,-10,31,13,-28,-31
-42,99,141,-28,-91,120,114,-12,31,13,-28,-31
-42,99,141,-28,-91,120,114,-13,30,12,-29,-32
-42,99,141,-28,-91,120,114,-14,29,12,-29,-32
-43,99,142,-28,-92,121,115,-13,30,13,-28,-32
-43,99,142,-28,-92,121,115,-14,30,13,-28,-32
-43,99,142,-28,-92,121,115,-15,30,13,-27,-31
-43,99,142,-28,-92,121,115,-14,30,13,-27,-31
-42,100,142,-29,-92,121,114,-13,29,13,-27,-31
-42,100,142,-29,-92,121,114,-12,29,13,-27,-30
-42,100,142,-29,-92,121,114,-12,29,13,-27,-30
-42,101,143,-29,-92,122,114,-12,29,13,-27,-30
-42,101,143,-29,-92,122,113,-10,29,13,-27,-30
-42,100,142,-29,-92,121,113,-9,29,12,-28,-30
-42,100,142,-29,-92,121,113,-10,30,12,-28,-31
-42,100,142,-29,-92,121,113,-11,30,12,-29,-31
-43,99,142,-28,-92,121,114,-11,30,12,-28,-31
-43,98,141,-27,-92,120,113,-12,29,11,-29,-32
-44,98,142,-27,-93,120,113,-13,28,11,-29,-32
-44,98,142,-27,-93,120,113,-13,26,10,-29,-33
-45,97,142,-26,-93,120,114,-12,25,11,-28,-32
-45,97,142,-26,-93,120,114,-14,24,11,-29,-32
-45,97,142,-26,-93,120,115,-15,24,11,-29,-32
-44,97,141,-26,-92,119,116,-17,25,12,-28,-31
-43,98,141,-27,-92,120,116,-17,25,11,-29,-32
-43,98,141,-27,-92,120,115,-16,28,11,-29,-32
-42,98,140,-28,-91,119,114,-15,30,12,-29,-32
-42,99,141,-28,-91,120,112,-14,31,11,-30,-33
-42,99,141,-28,-91,120,112,-12,31,11,-30,-33
-42,99,141,-28,-91,120,111,-10,31,11,-30,-33
-42,100,142,-29,-92,121,111,-9,30,11,-30,-33
-43,99,142,-28,-92,121,113,-11,29,12,-29,-32
-43,99,142,-28,-92,121,114,-15,27,12,-29,-32
-43,99,142,-28,-92,121,115,-17,26,12,-29,-32
-42,99,141,-28,-91,120,114,-17,25,11,-30,-33
-42,99,141,-28,-91,120,113,-15,26,12,-30,-33
-42,99,141,-28,-91,120,113,-15,26,12,-30,-33
-43,99,142,-28,-92,121,113,-12,28,13,-29,-32
-43,98,141,-27,-92,120,113,-9,29,13,-29,-33
-43,98,141,-27,-92,120,112,-7,29,13,-29,-33
-43,99,142,-28,-92,121,112,-7,30,13,-29,-33
-43,98,141,-27,-92,120,112,-9,30,13,-29,-33
-43,98,141,-27,-92,120,112,-10,30,13,-29,-33
-43,98,141,-27,-92,120,112,-10,30,12,-29,-33
-43,98,141,-27,-92,120,112,-10,30,12,-29,-34
-43,98,141,-27,-92,120,112,-11,30,12,-30,-34
-44,98,142,-27,-93,120,112,-12,29,12,-30,-34
-44,99,143,-27,-93,121,113,-12,28,12,-29,-34
-43,99,142,-28,-92,121,114,-12,28,13,-29,-33
-43,100,143,-28,-93,122,113,-15,27,12,-29,-34
-43,100,143,-28,-93,122,113,-16,27,12,-29,-33
-43,100,143,-28,-93,122,113,-15,27,13,-28,-33
-43,101,144,-29,-93,123,113,-13,28,13,-28,-33
-43,101,144,-29,-93,123,113,-12,29,13,-28,-33
-43,100,143,-28,-93,122,112,-12,29,12,-29,-34
-43,100,143,-28,-93,122,112,-11,29,12,-29,-34
-43,100,143,-28,-93,122,112,-10,29,12,-29,-35
-42,100,142,-29,-92,121,112,-11,28,12,-30,-35
-43,100,143,-28,-93,122,113,-12,27,12,-30,-35
-43,100,143,-28,-93,122,113,-13,26,12,-30,-35
-43,101,144,-29,-93,123,113,-13,26,12,-30,-34
-43,101,144,-29,-93,123,113,-13,26,12,-30,-34
-42,101,143,-29,-92,122,114,-13,26,13,-29,-34
-42,101,143,-29,-92,122,114,-14,26,13,-30,-34
-42,101,143,-29,-92,122,114,-14,26,12,-30,-34
-42,101,143,-29,-92,122,114,-15,27,12,-31,-35
-43,100,143,-28,-93,122,114,-15,26,12,-31,-35
-43,100,143,-28,-93,122,114,-15,26,12,-32,-36
-43,99,142,-28,-92,121,115,-12,28,13,-31,-35
-43,100,143,-28,-93,122,113,-11,28,12,-32,-36
-43,100,143,-28,-93,122,112,-10,28,12,-32,-36
-44,100,144,-28,-94,122,112,-9,28,13,-31,-35
-44,100,144,-28,-94,122,111,-10,28,13,-31,-35
-44,100,144,-28,-94,122,111,-13,28,13,-31,-34
-44,101,145,-28,-94,123,111,-17,26,12,-32,-35
-44,101,145,-28,-94,123,111,-18,26,12,-32,-35
-43,101,144,-29,-93,123,112,-19,26,12,-32,-35
-43,101,144,-29,-93,123,113,-17,27,13,-31,-35
-43,102,145,-29,-94,124,114,-13,28,14,-30,-35
-43,102,145,-29,-94,124,113,-9,28,15,-30,-35
-43,102,145,-29,-94,124,112,-6,27,15,-30,-35
-43,102,145,-29,-94,124,111,-4,26,15,-30,-35
-43,101,144,-29,-93,123,111,-4,26,15,-30,-35
-43,101,144,-29,-93,123,111,-5,26,15,-30,-36
-43,101,144,-29,-93,123,111,-7,26,15,-31,-37
-44,100,144,-28,-94,122,112,-7,27,15,-31,-36
-44,100,144,-28,-94,122,112,-8,28,14,-31,-37
-44,100,144,-28,-94,122,113,-9,29,14,-32,-37
-44,100,144,-28,-94,122,113,-9,30,14,-31,-36
-44,101,145,-28,-94,123,113,-10,29,14,-31,-37
-43,102,145,-29,-94,124,114,-10,29,14,-31,-36
-43,103,146,-30,-94,125,113,-11,28,13,-31,-37
-42,103,145,-30,-93,124,114,-10,28,14,-31,-36
-42,103,145,-30,-93,124,114,-10,28,13,-31,-36
-43,103,146,-30,-94,125,113,-10,27,13,-32,-37
-42,102,144,-30,-93,123,113,-11,26,13,-32,-37
-42,102,144,-30,-93,123,113,-11,26,13,-33,-38
-43,102,145,-29,-94,124,114,-10,26,13,-32,-37
-43,101,144,-29,-93,123,113,-10,25,14,-32,-37
-43,102,145,-29,-94,124,113,-10,25,14,-32,-37
-43,102,145,-29,-94,124,113,-12,25,14,-32,-37
-43,102,145,-29,-94,124,113,-13,25,14,-32,-37
-43,102,145,-29,-94,124,113,-13,26,14,-32,-37
-42,103,145,-30,-93,124,113,-14,26,13,-33,-38
-42,103,145,-30,-93,124,113,-14,26,13,-33,-38
-42,103,145,-30,-93,124,113,-14,26,13,-33,-38
-42,103,145,-30,-93,124,114,-12,26,13,-33,-38
-42,103,145,-30,-93,124,114,-11,26,13,-33,-38
-42,103,145,-30,-93,124,113,-11,26,13,-32,-38
-43,103,146,-30,-94,125,113,-11,26,14,-32,-38
-43,103,146,-30,-94,125,113,-10,27,14,-32,-38
-44,103,147,-29,-95,125,113,-8,29,16,-31,-37
-44,103,147,-29,-95,125,112,-7,29,16,-31,-37
-44,103,147,-29,-95,125,112,-6,30,16,-31,-37
-44,102,146,-29,-95,124,112,-5,30,15,-32,-38
-44,102,146,-29,-95,124,112,-6,29,14,-32,-38
-44,102,146,-29,-95,124,112,-9,28,14,-33,-38
-43,102,145,-29,-94,124,113,-13,27,13,-34,-39
-43,102,145,-29,-94,124,113,-17,27,13,-34,-39
-43,102,145,-29,-94,124,112,-18,27,14,-34,-38
-43,103,146,-30,-94,125,110,-18,26,14,-34,-39
-42,104,146,-31,-94,125,110,-15,26,15,-33,-38
-42,105,147,-31,-94,126,110,-12,26,15,-34,-38
-42,106,148,-32,-95,127,110,-7,27,15,-34,-38
-42,106,148,-32,-95,127,110,-4,27,15,-34,-38
-42,106,148,-32,-95,127,111,-3,28,15,-34,-38
-42,105,147,-31,-94,126,112,-5,28,14,-35,-39
-42,105,147,-31,-94,126,111,-8,27,14,-35,-39
-43,105,148,-31,-95,127,112,-9,28,15,-34,-38
-43,104,147,-30,-95,126,112,-10,28,15,-34,-38
-43,104,147,-30,-95,126,111,-11,27,15,-34,-38
-43,105,148,-31,-95,127,111,-11,26,15,-34,-38
-43,105,148,-31,-95,127,111,-11,26,15,-34,-38
-43,104,147,-30,-95,126,111,-11,26,15,-34,-38
-43,104,147,-30,-95,126,110,-11,26,15,-34,-39
-43,103,146,-30,-94,125,110,-11,26,15,-35,-39
-42,103,145,-30,-93,124,110,-11,26,15,-35,-39
-42,103,145,-30,-93,124,110,-12,26,15,-35,-39
-43,103,146,-30,-94,125,110,-12,26,14,-35,-39
-43,103,146,-30,-94,125,110,-12,26,14,-35,-40
-43,103,146,-30,-94,125,110,-12,26,14,-36,-40
-44,103,147,-29,-95,125,111,-10,26,14,-35,-39
-43,103,146,-30,-94,125,111,-12,26,13,-36,-40
-43,103,146,-30,-94,125,112,-13,26,13,-36,-40
-43,104,147,-30,-95,126,113,-14,26,14,-35,-40
-43,104,147,-30,-95,126,113,-15,25,14,-35,-39
-43,104,147,-30,-95,126,114,-15,25,15,-35,-39
-42,105,147,-31,-94,126,113,-16,25,14,-35,-40
-43,105,148,-31,-95,127,113,-14,25,15,-34,-39
-43,105,148,-31,-95,127,113,-12,25,15,-34,-39
-43,105,148,-31,-95,127,112,-10,25,15,-34,-39
-43,105,148,-31,-95,127,111,-9,25,15,-33,-39
-43,105,148,-31,-95,127,110,-8,26,15,-33,-39
-43,104,147,-30,-95,126,110,-8,27,15,-34,-40
-43,104,147,-30,-95,126,110,-8,27,14,-35,-41
-44,103,147,-29,-95,125,110,-10,27,14,-35,-41
-45,102,147,-28,-96,125,110,-14,26,14,-35,-41
-45,102,147,-28,-96,125,110,-16,25,13,-36,-42
-45,102,147,-28,-96,125,110,-15,25,14,-36,-42
-45,102,147,-28,-96,125,110,-14,24,14,-36,-41
-46,103,149,-28,-97,126,110,-13,25,14,-35,-41
-46,103,149,-28,-97,126,111,-13,25,15,-35,-41
-45,105,150,-30,-97,128,111,-12,25,14,-35,-41
-44,106,150,-31,-97,128,111,-11,26,14,-35,-40
-43,106,149,-31,-96,128,109,-12,26,13,-35,-41
-43,107,150,-32,-96,129,110,-13,27,13,-35,-41
-42,107,149,-32,-95,128,111,-12,27,13,-35,-40
-41,108,149,-33,-95,129,110,-11,26,13,-35,-41
-41,108,149,-33,-95,129,110,-9,26,13,-35,-41
-41,108,149,-33,-95,129,110,-9,25,13,-35,-41
-42,107,149,-32,-95,128,112,-10,25,15,-34,-40
-42,107,149,-32,-95,128,111,-11,24,15,-34,-40
-43,107,150,-32,-96,129,111,-11,23,15,-34,-40
-43,106,149,-31,-96,128,111,-11,23,16,-34,-40
-43,106,149,-31,-96,128,111,-11,23,16,-35,-41
-43,106,149,-31,-96,128,110,-11,24,16,-35,-41
-43,106,149,-31,-96,128,110,-12,25,16,-35,-41
-43,105,148,-31,-95,127,111,-11,26,17,-34,-41
-43,105,148,-31,-95,127,111,-12,27,16,-35,-41
-43,105,148,-31,-95,127,111,-13,27,16,-35,-41
-43,105,148,-31,-95,127,111,-14,27,15,-35,-41
-43,106,149,-31,-96,128,110,-15,25,14,-36,-42
-43,106,149,-31,-96,128,110,-14,25,14,-36,-42
-43,106,149,-31,-96,128,110,-14,24,14,-36,-42
-43,106,149,-31,-96,128,110,-13,24,14,-36,-42
-42,106,148,-32,-95,127,110,-12,23,13,-36,-42
-42,106,148,-32,-95,127,110,-12,22,13,-36,-43
-43,105,148,-31,-95,127,111,-12,23,14,-35,-42
-43,105,148,-31,-95,127,111,-13,23,14,-36,-42
-44,105,149,-30,-96,127,111,-14,23,14,-36,-42
-44,105,149,-30,-96,127,110,-14,23,14,-36,-42
-44,105,149,-30,-96,127,110,-14,23,14,-36,-42
-44,105,149,-30,-96,127,110,-14,24,14,-36,-42
-44,105,149,-30,-96,127,111,-14,24,14,-36,-42
-44,105,149,-30,-96,127,111,-14,24,14,-36,-42
-44,105,149,-30,-96,127,112,-13,25,14,-36,-42
-44,105,149,-30,-96,127,112,-12,25,14,-36,-42
-43,106,149,-31,-96,128,111,-12,24,13,-37,-43
-43,106,149,-31,-96,128,110,-11,24,14,-37,-43
-43,106,149,-31,-96,128,110,-9,24,14,-37,-43
-43,106,149,-31,-96,128,109,-9,23,14,-36,-42
-42,106,148,-32,-95,127,109,-11,23,14,-36,-42
-42,106,148,-32,-95,127,110,-13,22,15,-36,-42
-43,106,149,-31,-96,128,109,-13,22,14,-36,-42
-43,106,149,-31,-96,128,109,-12,23,14,-36,-42
-43,106,149,-31,-96,128,109,-12,23,14,-36,-42
-44,105,149,-30,-96,127,109,-10,25,14,-36,-42
-45,104,149,-29,-97,127,110,-7,26,15,-36,-42
-45,104,149,-29,-97,127,109,-6,26,15,-36,-42
-44,104,148,-30,-96,126,109,-9,25,14,-36,-43
-44,105,149,-30,-96,127,110,-10,25,15,-36,-42
-43,105,148,-31,-95,127,111,-11,25,15,-35,-41
-42,106,148,-32,-95,127,110,-10,24,15,-35,-42
-42,107,149,-32,-95,128,111,-9,25,16,-34,-41
-42,107,149,-32,-95,128,111,-8,25,16,-34,-40
-42,107,149,-32,-95,128,112,-9,25,16,-34,-40
-42,107,149,-32,-95,128,112,-11,25,16,-34,-40
-42,107,149,-32,-95,128,112,-12,25,16,-34,-41
-41,108,149,-33,-95,129,112,-13,25,15,-35,-41
-41,108,149,-33,-95,129,112,-13,25,16,-35,-41
-41,108,149,-33,-95,129,112,-13,25,16,-35,-41
-41,108,149,-33,-95,129,112,-11,25,16,-35,-41
-41,107,148,-33,-94,128,112,-9,25,16,-35,-41
-42,107,149,-32,-95,128,112,-6,26,16,-34,-40
-42,107,149,-32,-95,128,112,-7,25,16,-34,-40
"
		-43","
		106","
		149","
		-31","
		-96","
		128","
		112","
		-9","
		25","
		16","
		-35","
		-41"
-43,106,149,-31,-96,128,111,-10,24,15,-36,-42
-44,106,150,-31,-97,128,112,-12,24,16,-35,-42
-44,106,150,-31,-97,128,112,-14,24,16,-35,-42
-44,105,149,-30,-96,127,111,-16,23,15,-36,-42
-44,105,149,-30,-96,127,110,-16,23,15,-36,-43
-45,105,150,-30,-97,128,110,-15,23,15,-36,-43
-45,105,150,-30,-97,128,110,-13,23,15,-36,-43
-45,105,150,-30,-97,128,110,-11,24,16,-36,-43
-44,105,149,-30,-96,127,111,-9,25,16,-36,-42
-43,105,148,-31,-95,127,110,-8,25,16,-36,-42
-43,105,148,-31,-95,127,110,-9,26,16,-36,-42
-42,105,147,-31,-94,126,110,-12,25,15,-37,-43
-42,106,148,-32,-95,127,110,-13,25,15,-36,-43
-42,106,148,-32,-95,127,110,-13,24,16,-36,-43
-42,106,148,-32,-95,127,110,-12,24,16,-35,-42
