I,II,III,aVR,aVL,aVF,V1,V2,V3,V4,V5,V6
-120,-219,-99,170,-10,-159,232,267,176,214,-190,-179
-120,-219,-99,170,-10,-159,232,268,175,215,-189,-178
-119,-218,-99,169,-10,-158,231,267,174,214,-190,-179
-119,-218,-99,169,-10,-158,232,267,174,213,-190,-179
-120,-218,-98,169,-11,-158,232,267,173,213,-191,-179
-119,-218,-99,169,-10,-158,232,267,173,213,-190,-180
-119,-219,-100,169,-9,-159,232,267,173,213,-190,-180
-119,-218,-99,169,-10,-158,231,266,174,214,-190,-180
-119,-218,-99,169,-10,-158,231,266,175,214,-190,-180
-119,-219,-100,169,-9,-159,230,267,175,215,-190,-179
-119,-218,-99,169,-10,-158,230,267,175,216,-189,-179
-120,-218,-98,169,-11,-158,231,267,175,216,-189,-178
-120,-218,-98,169,-11,-158,231,268,175,216,-189,-178
-120,-218,-98,169,-11,-158,231,268,175,216,-189,-178
-120,-219,-99,170,-10,-159,232,269,177,217,-188,-177
-120,-219,-99,170,-10,-159,232,269,177,217,-188,-178
-119,-218,-99,169,-10,-158,231,268,177,216,-189,-179
-119,-218,-99,169,-10,-158,231,268,177,216,-190,-179
-119,-218,-99,169,-10,-158,231,268,176,215,-190,-179
-120,-218,-98,169,-11,-158,232,267,176,215,-191,-179
-120,-217,-97,169,-11,-157,232,267,176,215,-191,-179
-120,-218,-98,169,-11,-158,232,267,175,215,-191,-179
-120,-218,-98,169,-11,-158,233,266,176,214,-191,-179
-120,-218,-98,169,-11,-158,233,266,176,214,-191,-179
-120,-218,-98,169,-11,-158,233,267,177,214,-191,-179
-120,-219,-99,170,-10,-159,233,268,178,215,-190,-178
-120,-219,-99,170,-10,-159,233,268,177,214,-190,-178
-120,-219,-99,170,-10,-159,233,268,177,215,-190,-178
-120,-219,-99,170,-10,-159,233,268,176,215,-189,-178
-120,-219,-99,170,-10,-159,233,268,176,215,-189,-178
-120,-219,-99,170,-10,-159,232,268,176,216,-189,-178
-120,-219,-99,170,-10,-159,232,268,176,216,-189,-178
-119,-218,-99,169,-10,-158,232,267,175,216,-190,-179
-119,-218,-99,169,-10,-158,233,267,176,216,-189,-179
-119,-217,-98,168,-10,-157,233,268,177,216,-189,-178
-119,-217,-98,168,-10,-157,235,269,178,217,-189,-178
-119,-216,-97,168,-11,-156,235,269,179,217,-189,-178
-119,-214,-95,167,-12,-154,236,270,181,218,-188,-177
-119,-213,-94,166,-12,-153,237,270,181,218,-188,-177
-118,-212,-94,165,-12,-153,238,272,182,219,-186,-175
-118,-210,-92,164,-13,-151,238,272,182,219,-186,-175
-117,-208,-91,163,-13,-149,238,272,181,219,-186,-175
-116,-207,-91,162,-12,-149,237,272,181,219,-186,-175
-116,-207,-91,162,-12,-149,239,273,182,220,-185,-174
-116,-207,-91,162,-12,-149,240,274,183,220,-184,-174
-116,-206,-90,161,-13,-148,240,275,185,221,-184,-173
-117,-206,-89,162,-14,-147,241,276,186,221,-184,-173
-117,-206,-89,162,-14,-147,242,276,186,222,-184,-173
-118,-206,-88,162,-15,-147,244,277,187,223,-183,-172
-118,-206,-88,162,-15,-147,244,277,187,223,-184,-173
-118,-206,-88,162,-15,-147,244,277,186,223,-184,-173
-119,-206,-87,163,-16,-146,243,276,186,223,-184,-173
-119,-206,-87,163,-16,-146,243,277,186,223,-184,-173
-119,-206,-87,163,-16,-146,242,277,186,224,-183,-173
-118,-205,-87,162,-15,-146,241,276,186,224,-183,-173
-118,-205,-87,162,-15,-146,240,276,187,225,-182,-172
-117,-204,-87,161,-15,-145,240,276,189,226,-181,-171
-116,-203,-87,160,-14,-145,238,275,189,226,-181,-170
-115,-203,-88,159,-13,-145,238,276,190,226,-180,-169
-114,-203,-89,159,-12,-146,237,275,189,225,-181,-169
-113,-203,-90,158,-11,-146,237,274,188,225,-181,-169
-113,-203,-90,158,-11,-146,236,273,187,224,-181,-169
-113,-204,-91,159,-11,-147,234,270,185,223,-182,-169
-113,-205,-92,159,-10,-148,234,269,185,224,-182,-169
-113,-205,-92,159,-10,-148,233,267,184,224,-182,-169
-113,-205,-92,159,-10,-148,231,266,184,223,-182,-169
-113,-205,-92,159,-10,-148,230,265,184,223,-182,-169
-113,-205,-92,159,-10,-148,229,266,184,223,-182,-169
-112,-206,-94,159,-9,-150,229,266,184,223,-183,-170
-111,-206,-95,159,-8,-150,227,265,183,222,-184,-171
-111,-207,-96,159,-7,-151,228,266,183,223,-183,-170
-110,-208,-98,159,-6,-153,228,266,182,222,-183,-170
-110,-208,-98,159,-6,-153,229,266,182,222,-183,-170
-110,-208,-98,159,-6,-153,229,267,182,222,-183,-171
-110,-208,-98,159,-6,-153,230,267,181,221,-183,-171
-111,-208,-97,160,-7,-152,231,267,181,221,-184,-171
-112,-209,-97,161,-7,-153,232,267,182,221,-183,-171
-113,-211,-98,162,-7,-154,233,268,182,221,-183,-171
-113,-212,-99,163,-7,-155,232,266,180,220,-185,-172
-113,-214,-101,164,-6,-157,233,266,179,219,-186,-173
-113,-216,-103,165,-5,-159,232,265,178,217,-187,-175
-114,-217,-103,166,-5,-160,232,265,177,216,-188,-175
-115,-219,-104,167,-5,-161,232,265,176,215,-189,-176
-116,-220,-104,168,-6,-162,233,265,175,214,-189,-177
-116,-221,-105,169,-5,-163,233,264,173,213,-191,-178
-117,-221,-104,169,-6,-162,232,264,173,213,-191,-178
-117,-221,-104,169,-6,-162,232,263,172,213,-192,-178
-116,-221,-105,169,-5,-163,232,263,173,213,-192,-178
-116,-221,-105,169,-5,-163,232,263,174,214,-192,-178
-116,-220,-104,168,-6,-162,232,264,175,215,-191,-177
-116,-220,-104,168,-6,-162,233,264,176,216,-191,-177
-115,-220,-105,168,-5,-162,232,264,177,216,-191,-177
-115,-219,-104,167,-5,-161,233,264,177,216,-191,-177
-115,-219,-104,167,-5,-161,233,264,177,216,-191,-177
-115,-219,-104,167,-5,-161,233,264,177,216,-191,-177
-114,-219,-105,167,-4,-162,233,264,178,216,-191,-177
-114,-219,-105,167,-4,-162,233,264,178,216,-192,-178
-115,-219,-104,167,-5,-161,233,264,177,215,-192,-178
-115,-219,-104,167,-5,-161,232,264,176,215,-192,-178
-116,-218,-102,167,-7,-160,232,264,175,215,-192,-178
-116,-218,-102,167,-7,-160,232,263,175,214,-192,-178
-117,-218,-101,168,-8,-159,232,264,175,214,-191,-178
-116,-218,-102,167,-7,-160,232,264,175,214,-191,-177
-116,-218,-102,167,-7,-160,232,264,176,214,-191,-177
-116,-219,-103,168,-6,-161,232,265,177,215,-191,-177
-116,-219,-103,168,-6,-161,232,265,177,215,-191,-177
-115,-219,-104,167,-5,-161,231,265,178,215,-191,-177
-115,-219,-104,167,-5,-161,231,264,178,215,-191,-177
-116,-219,-103,168,-6,-161,230,264,177,215,-191,-178
-116,-219,-103,168,-6,-161,230,264,177,215,-191,-177
-116,-219,-103,168,-6,-161,230,263,177,215,-191,-177
-117,-218,-101,168,-8,-159,230,263,177,216,-191,-177
-117,-218,-101,168,-8,-159,229,263,177,216,-191,-177
-117,-218,-101,168,-8,-159,229,263,177,216,-191,-177
-117,-218,-101,168,-8,-159,230,263,177,216,-191,-177
-117,-218,-101,168,-8,-159,230,263,177,216,-192,-177
-118,-218,-100,168,-9,-159,231,264,177,216,-191,-177
-118,-219,-101,169,-8,-160,231,263,177,215,-192,-177
-118,-219,-101,169,-8,-160,231,263,177,215,-192,-178
-118,-219,-101,169,-8,-160,231,263,177,215,-192,-178
-117,-219,-102,168,-7,-160,231,263,177,215,-192,-178
-117,-218,-101,168,-8,-159,230,263,176,214,-193,-178
-117,-218,-101,168,-8,-159,230,263,175,214,-193,-178
-117,-218,-101,168,-8,-159,230,263,175,215,-193,-178
-117,-218,-101,168,-8,-159,230,263,175,215,-193,-178
-116,-218,-102,167,-7,-160,231,263,175,215,-192,-178
-116,-218,-102,167,-7,-160,231,264,175,216,-193,-178
-117,-218,-101,168,-8,-159,232,265,176,216,-193,-178
-118,-218,-100,168,-9,-159,235,267,178,216,-193,-179
-118,-218,-100,168,-9,-159,238,270,179,214,-195,-180
-119,-219,-100,169,-9,-159,242,275,181,212,-199,-183
-120,-222,-102,171,-9,-162,248,285,186,211,-201,-186
-121,-226,-105,174,-8,-165,255,297,192,210,-206,-191
-120,-230,-110,175,-5,-170,263,310,200,209,-211,-195
-119,-234,-115,177,-2,-174,272,325,210,209,-214,-199
-118,-237,-119,178,1,-178,280,341,220,211,-216,-201
-117,-238,-121,178,2,-179,285,353,229,214,-217,-201
-114,-235,-121,175,4,-178,288,362,239,219,-215,-200
-110,-230,-120,170,5,-175,289,369,250,228,-209,-195
-105,-220,-115,163,5,-167,285,374,263,241,-199,-188
-98,-207,-109,153,6,-158,280,379,279,259,-184,-176
-89,-191,-102,140,7,-146,274,384,303,285,-164,-161
-80,-170,-90,125,5,-130,266,387,333,317,-140,-143
-71,-146,-75,109,2,-110,257,385,364,356,-109,-120
-63,-117,-54,90,-4,-85,247,375,390,399,-75,-94
-57,-86,-29,72,-14,-57,235,355,407,442,-38,-67
-53,-54,-1,54,-26,-27,222,324,414,488,1,-39
-49,-23,26,36,-37,2,205,282,411,539,44,-7
-45,6,51,20,-48,29,187,230,398,594,88,23
-41,28,69,7,-55,49,167,175,381,651,131,51
-39,42,81,-1,-60,62,151,126,360,704,170,77
-40,45,85,-2,-62,65,139,86,331,744,199,95
-44,37,81,4,-62,59,131,58,291,759,212,102
-53,22,75,16,-64,49,131,44,243,747,210,100
-64,1,65,32,-64,33,137,42,189,703,191,88
-77,-24,53,51,-65,15,144,49,129,627,154,65
-90,-52,38,71,-64,-7,151,62,73,532,105,36
-101,-77,24,89,-62,-26,153,73,28,432,51,5
-110,-101,9,106,-59,-46,154,84,0,341,-1,-25
-116,-123,-7,120,-54,-65,153,93,-14,267,-50,-55
-122,-145,-23,134,-49,-84,154,103,-15,213,-92,-81
-126,-165,-39,146,-43,-102,155,113,-10,178,-127,-106
-129,-182,-53,156,-38,-117,159,122,-2,160,-153,-127
-132,-196,-64,164,-34,-130,167,132,11,156,-171,-142
-134,-208,-74,171,-30,-141,176,142,24,157,-184,-155
-135,-217,-82,176,-26,-149,183,150,35,158,-194,-166
-136,-225,-89,181,-23,-157,189,158,47,160,-199,-172
-135,-230,-95,183,-20,-162,193,165,59,163,-202,-177
-134,-234,-100,184,-17,-167,198,175,74,168,-204,-180
-132,-235,-103,184,-14,-169,202,186,92,173,-204,-182
-130,-235,-105,183,-12,-170,205,198,109,180,-201,-181
-127,-232,-105,180,-11,-168,209,209,126,187,-198,-180
-124,-228,-104,176,-10,-166,214,220,141,194,-195,-177
-122,-223,-101,173,-10,-162,218,230,155,201,-190,-174
-119,-217,-98,168,-10,-157,221,238,165,207,-187,-171
-117,-213,-96,165,-10,-154,224,246,173,212,-184,-169
-117,-211,-94,164,-11,-152,228,253,179,215,-183,-168
-115,-210,-95,163,-10,-152,231,258,183,218,-182,-168
-114,-209,-95,162,-9,-152,233,263,186,219,-182,-169
-114,-210,-96,162,-9,-153,236,268,190,222,-182,-169
-114,-211,-97,163,-8,-154,237,270,192,222,-183,-170
-114,-212,-98,163,-8,-155,237,271,193,222,-184,-171
-114,-212,-98,163,-8,-155,237,272,195,222,-185,-172
-114,-212,-98,163,-8,-155,237,273,195,222,-186,-173
-114,-213,-99,164,-7,-156,237,274,197,223,-185,-172
-113,-212,-99,163,-7,-155,235,273,196,221,-187,-173
-113,-212,-99,163,-7,-155,235,274,197,221,-187,-173
-113,-212,-99,163,-7,-155,235,275,197,221,-187,-173
-113,-212,-99,163,-7,-155,235,275,198,221,-187,-173
-113,-213,-100,163,-6,-156,236,276,199,220,-188,-174
-114,-213,-99,164,-7,-156,238,277,201,222,-187,-173
-114,-213,-99,164,-7,-156,239,278,202,222,-188,-173
-114,-213,-99,164,-7,-156,240,278,203,223,-188,-173
-113,-213,-100,163,-6,-156,240,278,203,223,-188,-173
-113,-212,-99,163,-7,-155,240,278,204,225,-187,-172
-112,-211,-99,162,-6,-155,240,278,203,226,-187,-171
-112,-210,-98,161,-7,-154,240,279,203,227,-186,-170
-112,-210,-98,161,-7,-154,241,280,203,228,-185,-170
-111,-209,-98,160,-6,-153,240,279,202,228,-185,-170
-111,-209,-98,160,-6,-153,241,279,202,228,-185,-170
-111,-209,-98,160,-6,-153,242,280,202,229,-185,-170
-111,-209,-98,160,-6,-153,242,280,203,229,-186,-170
-111,-209,-98,160,-6,-153,243,281,203,230,-186,-170
-110,-209,-99,160,-5,-154,243,281,203,230,-185,-169
-110,-208,-98,159,-6,-153,243,282,204,231,-184,-168
-109,-208,-99,159,-5,-153,242,282,204,230,-184,-169
-109,-207,-98,158,-5,-152,242,282,205,231,-183,-168
-108,-206,-98,157,-5,-152,241,282,206,231,-182,-168
-108,-206,-98,157,-5,-152,241,282,209,231,-181,-168
-108,-206,-98,157,-5,-152,242,283,210,232,-181,-168
-108,-206,-98,157,-5,-152,242,283,212,232,-181,-168
-107,-206,-99,157,-4,-152,242,284,214,233,-180,-168
-107,-205,-98,156,-4,-151,242,284,215,233,-180,-168
-106,-205,-99,156,-3,-152,241,283,216,233,-180,-169
-106,-204,-98,155,-4,-151,241,284,217,234,-179,-168
-106,-203,-97,155,-4,-150,241,284,217,235,-179,-168
-106,-202,-96,154,-5,-149,240,284,217,234,-178,-168
-106,-201,-95,154,-5,-148,240,284,218,234,-178,-167
-106,-201,-95,154,-5,-148,241,285,219,235,-177,-166
-106,-201,-95,154,-5,-148,241,285,220,235,-177,-166
-106,-201,-95,154,-5,-148,241,285,221,235,-178,-166
-106,-202,-96,154,-5,-149,242,285,223,235,-178,-167
-106,-201,-95,154,-5,-148,242,286,224,236,-178,-167
-106,-201,-95,154,-5,-148,242,286,226,237,-178,-167
-105,-200,-95,153,-5,-147,240,285,225,238,-178,-167
-105,-200,-95,153,-5,-147,239,285,225,239,-178,-167
-105,-199,-94,152,-5,-146,239,286,225,241,-177,-166
-104,-199,-95,152,-4,-147,239,286,225,242,-176,-165
-104,-199,-95,152,-4,-147,239,287,226,242,-176,-164
-105,-199,-94,152,-5,-146,239,287,227,243,-176,-164
-105,-199,-94,152,-5,-146,239,288,228,243,-176,-164
-104,-199,-95,152,-4,-147,239,288,229,243,-176,-164
-104,-198,-94,151,-5,-146,238,287,229,242,-177,-165
-104,-198,-94,151,-5,-146,237,286,230,243,-178,-165
-104,-198,-94,151,-5,-146,237,286,230,244,-177,-164
-104,-197,-93,151,-5,-145,236,287,230,245,-177,-163
-104,-197,-93,151,-5,-145,236,287,230,246,-176,-162
-104,-197,-93,151,-5,-145,236,288,230,247,-175,-161
-104,-197,-93,151,-5,-145,236,289,231,248,-175,-161
-104,-197,-93,151,-5,-145,236,291,231,249,-174,-160
-104,-196,-92,150,-6,-144,236,292,232,250,-174,-160
-104,-196,-92,150,-6,-144,236,292,233,251,-173,-160
-104,-196,-92,150,-6,-144,237,293,234,252,-172,-160
-104,-196,-92,150,-6,-144,237,294,235,253,-172,-159
-103,-195,-92,149,-5,-143,236,293,236,253,-171,-159
-102,-194,-92,148,-5,-143,235,293,236,254,-171,-159
-102,-194,-92,148,-5,-143,235,293,236,255,-170,-158
-101,-193,-92,147,-4,-142,235,294,236,256,-169,-157
-101,-193,-92,147,-4,-142,234,295,237,257,-168,-157
-101,-193,-92,147,-4,-142,234,295,237,257,-167,-157
-101,-193,-92,147,-4,-142,234,296,238,258,-167,-157
-101,-193,-92,147,-4,-142,234,296,239,259,-166,-156
-101,-192,-91,147,-5,-141,233,296,239,260,-166,-157
-101,-192,-91,147,-5,-141,234,297,241,262,-164,-156
-100,-191,-91,146,-4,-141,234,298,242,264,-163,-155
-100,-190,-90,145,-5,-140,234,299,242,266,-162,-154
-99,-189,-90,144,-4,-139,234,300,243,268,-160,-153
-98,-188,-90,143,-4,-139,234,300,244,268,-159,-152
-97,-188,-91,143,-3,-139,234,302,246,270,-158,-151
-97,-187,-90,142,-3,-138,234,302,248,270,-157,-151
-96,-187,-91,142,-2,-139,234,304,250,271,-156,-149
-95,-187,-92,141,-1,-139,235,305,252,273,-154,-148
-95,-186,-91,141,-2,-138,234,305,253,274,-154,-148
-94,-185,-91,140,-1,-138,234,306,255,276,-152,-147
-93,-184,-91,139,-1,-137,234,306,257,278,-151,-146
-92,-183,-91,138,0,-137,233,307,258,280,-150,-145
-92,-182,-90,137,-1,-136,234,309,260,282,-148,-144
-91,-181,-90,136,0,-135,234,310,262,284,-147,-143
-90,-181,-91,136,1,-136,236,312,265,286,-145,-141
-89,-180,-91,135,1,-135,236,312,266,288,-145,-141
-89,-179,-90,134,1,-134,236,314,269,290,-144,-140
-88,-178,-90,133,1,-134,236,314,271,292,-143,-140
-87,-178,-91,133,2,-134,237,315,275,295,-142,-139
-86,-177,-91,132,3,-134,236,316,277,297,-141,-139
-86,-176,-90,131,2,-133,236,318,281,301,-139,-137
-85,-176,-91,131,3,-133,236,319,284,304,-137,-135
-85,-175,-90,130,3,-132,235,320,286,306,-136,-134
-84,-174,-90,129,3,-132,235,323,289,308,-134,-133
-83,-174,-91,129,4,-132,234,324,292,310,-132,-132
-83,-173,-90,128,4,-131,235,325,295,313,-131,-131
-82,-172,-90,127,4,-131,234,325,297,315,-130,-130
-82,-172,-90,127,4,-131,234,327,301,318,-128,-128
-82,-170,-88,126,3,-129,234,328,306,322,-125,-127
-81,-169,-88,125,4,-128,233,329,309,325,-124,-126
-81,-168,-87,125,3,-127,232,331,312,329,-121,-124
-81,-167,-86,124,3,-126,231,332,315,332,-119,-123
-81,-166,-85,124,2,-125,231,334,318,336,-117,-121
-80,-165,-85,123,3,-125,230,335,321,339,-115,-121
-80,-164,-84,122,2,-124,230,337,325,343,-112,-119
-79,-163,-84,121,3,-123,229,338,328,345,-110,-118
-78,-162,-84,120,3,-123,229,339,333,349,-107,-116
-78,-161,-83,120,3,-122,228,340,335,353,-105,-115
-77,-159,-82,118,3,-120,227,341,338,357,-102,-114
-76,-158,-82,117,3,-120,226,343,342,363,-98,-111
-75,-156,-81,116,3,-118,225,344,345,368,-95,-109
-74,-154,-80,114,3,-117,224,346,349,374,-91,-107
-74,-153,-79,114,3,-116,222,347,352,379,-88,-105
-73,-152,-79,113,3,-115,222,349,357,385,-84,-102
-71,-150,-79,111,4,-114,221,350,361,389,-81,-101
-70,-149,-79,110,5,-114,221,352,366,395,-77,-98
-69,-148,-79,109,5,-113,221,353,370,400,-74,-96
"
		-68","
		-146","
		-78","
		107","
		5","
		-112","
		221","
		354","
		375","
		405","
		-71","
		-94"
-67,-144,-77,106,5,-110,220,355,379,410,-68,-91
-65,-142,-77,104,6,-109,219,356,384,416,-65,-89
-64,-139,-75,102,6,-107,218,357,387,422,-61,-87
-63,-136,-73,100,5,-104,217,359,391,428,-57,-84
-62,-134,-72,98,5,-103,217,360,394,435,-53,-81
-60,-132,-72,96,6,-102,216,362,398,440,-49,-78
-59,-130,-71,95,6,-100,216,363,402,446,-46,-75
-57,-128,-71,93,7,-99,215,364,406,450,-43,-73
-56,-126,-70,91,7,-98,215,365,410,454,-40,-71
-55,-124,-69,90,7,-96,215,365,415,459,-37,-68
-53,-122,-69,88,8,-95,215,366,419,464,-34,-66
-51,-120,-69,86,9,-94,215,366,423,470,-30,-64
-50,-117,-67,84,9,-92,213,366,426,474,-28,-62
-48,-115,-67,82,10,-91,213,366,428,479,-24,-60
-47,-112,-65,80,9,-88,212,367,430,484,-21,-57
-45,-110,-65,78,10,-87,211,366,431,487,-19,-56
-44,-108,-64,76,10,-86,210,366,433,491,-17,-54
-43,-106,-63,75,10,-84,210,365,435,495,-15,-53
-42,-105,-63,74,11,-84,210,366,438,498,-12,-51
-42,-103,-61,73,10,-82,210,365,440,501,-10,-50
-41,-102,-61,72,10,-81,209,364,442,503,-9,-49
-41,-101,-60,71,10,-80,210,363,444,504,-8,-48
-40,-100,-60,70,10,-80,209,361,444,504,-8,-48
-40,-99,-59,70,10,-79,209,360,444,505,-7,-48
-40,-99,-59,70,10,-79,209,358,444,504,-8,-48
-40,-99,-59,70,10,-79,209,356,443,503,-9,-48
-40,-99,-59,70,10,-79,209,354,442,500,-11,-50
-41,-100,-59,71,9,-79,210,353,441,498,-12,-50
-43,-101,-58,72,8,-79,211,351,439,494,-15,-52
-44,-103,-59,74,8,-81,212,348,437,490,-17,-54
-46,-104,-58,75,6,-81,212,346,433,485,-21,-56
-47,-106,-59,77,6,-82,212,343,427,479,-25,-58
-49,-108,-59,79,5,-83,211,340,422,472,-29,-61
-50,-111,-61,81,6,-86,211,337,415,466,-33,-64
-52,-114,-62,83,5,-88,211,335,408,459,-37,-66
-53,-117,-64,85,6,-90,211,332,401,452,-42,-70
-55,-121,-66,88,6,-93,212,330,395,444,-47,-73
-57,-124,-67,91,5,-95,213,327,390,437,-52,-77
-60,-128,-68,94,4,-98,214,325,384,429,-58,-80
-63,-132,-69,98,3,-100,215,323,379,422,-63,-83
-66,-136,-70,101,2,-103,216,320,373,413,-68,-87
-69,-139,-70,104,1,-104,216,317,366,405,-74,-91
-71,-143,-72,107,1,-107,216,314,358,397,-80,-95
-74,-147,-73,111,0,-110,216,312,351,389,-85,-99
-76,-151,-75,114,0,-113,216,310,343,380,-90,-102
-78,-155,-77,117,0,-116,216,307,335,372,-96,-106
-81,-159,-78,120,-1,-118,218,306,329,364,-100,-109
-83,-163,-80,123,-1,-121,218,304,322,357,-105,-113
-85,-167,-82,126,-1,-124,219,302,315,349,-111,-116
-87,-171,-84,129,-1,-127,219,300,308,342,-116,-120
-90,-175,-85,133,-2,-130,220,298,302,336,-120,-123
-92,-179,-87,136,-2,-133,221,297,296,330,-124,-126
-93,-182,-89,138,-2,-135,220,295,289,323,-129,-130
-95,-185,-90,140,-2,-137,221,294,283,317,-132,-132
-96,-187,-91,142,-2,-139,221,292,276,310,-136,-135
-98,-190,-92,144,-3,-141,223,291,271,305,-139,-136
-99,-192,-93,146,-3,-142,224,290,266,299,-142,-138
-100,-194,-94,147,-3,-144,224,289,261,295,-145,-141
-101,-196,-95,149,-3,-145,225,288,256,290,-148,-143
-102,-198,-96,150,-3,-147,226,287,251,287,-150,-144
-103,-200,-97,152,-3,-148,226,286,248,284,-152,-146
-103,-202,-99,153,-2,-150,226,285,244,280,-155,-148
-104,-203,-99,154,-2,-151,226,284,242,278,-156,-149
-104,-204,-100,154,-2,-152,225,283,238,275,-158,-150
-104,-205,-101,155,-1,-153,226,283,236,273,-159,-150
-104,-206,-102,155,-1,-154,225,283,234,270,-160,-152
-104,-207,-103,156,0,-155,226,283,231,267,-162,-153
-104,-208,-104,156,0,-156,227,284,229,265,-162,-153
-103,-208,-105,156,1,-156,227,282,226,262,-165,-155
-103,-209,-106,156,2,-157,229,282,226,260,-165,-155
-103,-208,-105,156,1,-156,229,281,224,257,-167,-157
-103,-208,-105,156,1,-156,230,281,223,255,-168,-157
-103,-207,-104,155,1,-155,230,281,222,254,-168,-157
-102,-207,-105,155,2,-156,231,281,222,254,-169,-157
-102,-206,-104,154,1,-155,231,281,220,252,-169,-158
-102,-206,-104,154,1,-155,232,282,219,252,-169,-157
-102,-206,-104,154,1,-155,233,282,218,251,-169,-157
-101,-206,-105,154,2,-155,234,283,218,251,-169,-157
-101,-206,-105,154,2,-155,235,283,218,250,-169,-156
-101,-206,-105,154,2,-155,236,283,218,249,-169,-156
-101,-206,-105,154,2,-155,236,284,218,248,-169,-156
-100,-206,-106,153,3,-156,236,284,218,248,-170,-156
-100,-205,-105,153,3,-155,235,283,217,247,-171,-157
-100,-205,-105,153,3,-155,235,283,217,246,-171,-157
-99,-204,-105,152,3,-154,236,283,216,245,-171,-157
-99,-204,-105,152,3,-154,236,283,216,245,-171,-157
-99,-204,-105,152,3,-154,236,282,216,244,-172,-157
-99,-204,-105,152,3,-154,236,282,215,244,-172,-157
-99,-204,-105,152,3,-154,235,281,215,242,-173,-157
-100,-205,-105,153,3,-155,235,281,214,242,-173,-157
-100,-205,-105,153,3,-155,234,281,213,241,-174,-157
-101,-205,-104,153,2,-154,234,281,213,242,-173,-156
-101,-206,-105,154,2,-155,233,282,212,242,-173,-157
-101,-206,-105,154,2,-155,232,282,212,241,-174,-157
-101,-206,-105,154,2,-155,231,282,212,241,-174,-157
-102,-207,-105,155,2,-156,232,283,212,242,-174,-156
-102,-207,-105,155,2,-156,232,282,212,241,-174,-157
-103,-208,-105,156,1,-156,232,282,211,240,-175,-157
-104,-208,-104,156,0,-156,233,282,212,240,-174,-156
-105,-208,-103,157,-1,-155,233,281,211,239,-175,-157
-106,-208,-102,157,-2,-155,232,280,210,238,-175,-157
-106,-208,-102,157,-2,-155,232,279,209,237,-176,-158
-107,-209,-102,158,-2,-155,232,280,209,237,-175,-157
-107,-209,-102,158,-2,-155,231,279,208,236,-176,-157
-107,-209,-102,158,-2,-155,231,279,207,236,-176,-157
-107,-210,-103,159,-2,-156,231,279,207,235,-177,-158
-108,-210,-102,159,-3,-156,232,280,207,235,-176,-157
-108,-210,-102,159,-3,-156,231,280,207,235,-177,-157
-108,-211,-103,160,-2,-157,231,279,206,235,-177,-158
-109,-211,-102,160,-3,-156,231,279,204,234,-177,-158
-109,-212,-103,161,-3,-157,231,279,205,235,-177,-158
-109,-212,-103,161,-3,-157,231,279,204,234,-177,-158
-108,-212,-104,160,-2,-158,229,277,203,233,-178,-159
-108,-212,-104,160,-2,-158,229,277,203,233,-177,-159
-107,-211,-104,159,-1,-157,229,277,203,233,-177,-159
-107,-211,-104,159,-1,-157,229,277,204,233,-177,-159
-107,-211,-104,159,-1,-157,229,278,203,232,-176,-159
-106,-210,-104,158,-1,-157,228,277,202,231,-177,-160
-106,-210,-104,158,-1,-157,228,277,201,232,-176,-159
-107,-209,-102,158,-2,-155,228,277,201,232,-176,-159
-106,-209,-103,158,-1,-156,228,276,201,232,-176,-159
-106,-208,-102,157,-2,-155,227,275,199,231,-176,-159
-105,-208,-103,157,-1,-155,228,275,200,231,-175,-159
-105,-207,-102,156,-1,-154,228,276,200,231,-175,-158
-104,-206,-102,155,-1,-154,227,275,199,231,-176,-159
-103,-205,-102,154,0,-153,227,275,199,230,-176,-159
-102,-204,-102,153,0,-153,229,275,199,231,-176,-159
-102,-203,-101,153,0,-152,229,275,199,230,-176,-160
-101,-203,-102,152,1,-152,229,275,199,230,-176,-160
-101,-202,-101,152,0,-151,230,276,200,230,-176,-160
-100,-202,-102,151,1,-152,230,275,199,230,-177,-160
-99,-201,-102,150,2,-151,230,275,200,230,-177,-160
-99,-201,-102,150,2,-151,231,275,199,230,-176,-159
-99,-200,-101,150,1,-150,230,274,198,229,-177,-160
-98,-200,-102,149,2,-151,230,274,198,230,-177,-159
-98,-200,-102,149,2,-151,231,275,197,230,-177,-159
-98,-200,-102,149,2,-151,231,275,197,230,-177,-159
-98,-200,-102,149,2,-151,231,275,197,230,-177,-159
-98,-201,-103,150,3,-152,232,274,197,229,-178,-159
-98,-201,-103,150,3,-152,232,273,196,229,-178,-159
-98,-201,-103,150,3,-152,232,273,196,228,-178,-159
-98,-201,-103,150,3,-152,231,272,195,228,-179,-159
-97,-201,-104,149,4,-152,231,272,194,228,-179,-159
-97,-202,-105,150,4,-153,230,271,193,228,-179,-160
-98,-202,-104,150,3,-153,230,272,193,229,-179,-159
-98,-203,-105,151,4,-154,230,272,192,228,-179,-160
-98,-204,-106,151,4,-155,230,272,192,228,-180,-161
-99,-204,-105,152,3,-154,230,272,192,228,-180,-161
-100,-205,-105,153,3,-155,230,272,192,227,-181,-161
-101,-206,-105,154,2,-155,231,272,192,227,-181,-161
-102,-207,-105,155,2,-156,231,272,192,227,-181,-161
-102,-208,-106,155,2,-157,231,271,192,226,-182,-162
-103,-208,-105,156,1,-156,230,270,190,225,-182,-163
-104,-209,-105,157,1,-157,230,270,190,225,-182,-162
-104,-209,-105,157,1,-157,229,270,188,223,-183,-163
-105,-210,-105,158,0,-157,229,270,188,223,-183,-163
-106,-211,-105,159,0,-158,228,269,186,222,-184,-164
-106,-212,-106,159,0,-159,229,269,186,221,-184,-163
-107,-212,-105,160,-1,-158,229,268,184,220,-185,-164
-107,-213,-106,160,0,-159,229,268,183,219,-185,-165
-107,-214,-107,161,0,-160,230,268,184,220,-185,-165
-108,-214,-106,161,-1,-160,229,267,183,220,-185,-165
-108,-214,-106,161,-1,-160,229,266,182,220,-186,-165
-108,-214,-106,161,-1,-160,228,266,182,220,-186,-165
-108,-214,-106,161,-1,-160,228,266,182,220,-186,-166
-108,-214,-106,161,-1,-160,228,266,182,219,-186,-166
-108,-215,-107,162,0,-161,228,266,181,219,-187,-166
-108,-215,-107,162,0,-161,228,266,181,218,-187,-166
-108,-215,-107,162,0,-161,228,266,182,217,-187,-167
-109,-216,-107,163,-1,-161,229,267,183,217,-186,-166
-109,-216,-107,163,-1,-161,228,267,183,217,-186,-166
-108,-215,-107,162,0,-161,227,265,181,216,-187,-166
-108,-215,-107,162,0,-161,227,265,181,216,-187,-166
-107,-214,-107,161,0,-160,227,265,181,216,-186,-165
-107,-214,-107,161,0,-160,227,265,181,217,-186,-164
-106,-213,-107,160,1,-160,227,264,180,216,-186,-165
-106,-213,-107,160,1,-160,227,265,180,216,-186,-164
-105,-213,-108,159,2,-160,228,266,181,217,-185,-164
-105,-213,-108,159,2,-160,228,267,181,217,-185,-163
-105,-212,-107,159,1,-159,228,266,181,216,-185,-164
-104,-212,-108,158,2,-160,228,267,181,216,-185,-163
-104,-212,-108,158,2,-160,228,267,182,217,-184,-163
-103,-211,-108,157,3,-159,227,267,181,216,-185,-163
-102,-210,-108,156,3,-159,227,267,182,217,-184,-162
-102,-209,-107,156,3,-158,227,267,181,216,-185,-163
-101,-209,-108,155,4,-158,227,267,181,217,-184,-162
-100,-208,-108,154,4,-158,227,267,180,216,-185,-163
-100,-208,-108,154,4,-158,227,267,180,216,-185,-163
-100,-208,-108,154,4,-158,228,267,181,216,-185,-163
-100,-208,-108,154,4,-158,228,266,181,215,-185,-163
-100,-208,-108,154,4,-158,228,266,181,215,-186,-163
-100,-208,-108,154,4,-158,228,265,182,215,-186,-163
-99,-208,-109,154,5,-158,227,265,182,215,-186,-163
-99,-208,-109,154,5,-158,227,265,182,215,-186,-163
-99,-208,-109,154,5,-158,227,265,181,215,-186,-163
-99,-208,-109,154,5,-158,227,265,180,214,-186,-163
-100,-209,-109,155,5,-159,228,266,180,215,-185,-162
-100,-209,-109,155,5,-159,228,266,178,215,-185,-163
-100,-210,-110,155,5,-160,228,266,178,215,-186,-163
-101,-211,-110,156,5,-160,229,267,179,215,-185,-163
-102,-211,-109,157,4,-160,229,266,180,215,-186,-164
-102,-212,-110,157,4,-161,228,266,181,215,-186,-164
-103,-212,-109,158,3,-160,228,266,182,216,-185,-163
-103,-213,-110,158,4,-161,228,266,182,216,-186,-163
-103,-213,-110,158,4,-161,227,266,181,216,-186,-164
-103,-213,-110,158,4,-161,227,265,179,215,-186,-164
-103,-214,-111,159,4,-162,226,265,179,215,-186,-164
-103,-214,-111,159,4,-162,226,265,179,214,-187,-165
-104,-215,-111,160,4,-163,227,265,179,214,-187,-164
-104,-216,-112,160,4,-164,227,265,179,213,-188,-165
-105,-216,-111,161,3,-163,228,265,179,213,-187,-165
-105,-217,-112,161,4,-164,228,264,178,212,-188,-165
-106,-217,-111,162,3,-164,228,264,177,212,-188,-165
-106,-217,-111,162,3,-164,228,264,176,213,-188,-165
-106,-217,-111,162,3,-164,228,264,175,213,-188,-165
-106,-217,-111,162,3,-164,228,264,175,212,-188,-166
-107,-218,-111,163,2,-164,229,264,176,213,-187,-165
-107,-218,-111,163,2,-164,228,264,176,213,-187,-165
-107,-218,-111,163,2,-164,228,263,176,212,-188,-166
-107,-219,-112,163,3,-165,228,263,176,212,-188,-166
-107,-219,-112,163,3,-165,227,262,177,212,-188,-166
-107,-218,-111,163,2,-164,227,263,177,212,-188,-166
-106,-218,-112,162,3,-165,227,263,178,212,-188,-165
-106,-218,-112,162,3,-165,227,264,178,212,-187,-165
-105,-217,-112,161,4,-164,227,263,176,211,-188,-166
-105,-217,-112,161,4,-164,227,264,176,211,-188,-166
-105,-216,-111,161,3,-163,228,264,176,211,-188,-166
-105,-216,-111,161,3,-163,228,263,176,211,-188,-166
-105,-216,-111,161,3,-163,228,263,176,211,-188,-166
-105,-216,-111,161,3,-163,229,263,177,211,-188,-166
-105,-215,-110,160,3,-162,228,262,176,210,-189,-167
-105,-214,-109,160,2,-161,228,262,176,210,-189,-167
-106,-214,-108,160,1,-161,228,262,176,211,-188,-167
-106,-213,-107,160,1,-160,228,263,176,211,-188,-166
-105,-213,-108,159,2,-160,228,263,175,211,-188,-166
-105,-212,-107,159,1,-159,227,263,174,211,-188,-166
-105,-212,-107,159,1,-159,227,263,174,211,-188,-166
-104,-212,-108,158,2,-160,227,263,175,211,-188,-166
-103,-212,-109,158,3,-160,227,263,175,212,-188,-166
-102,-212,-110,157,4,-161,227,262,175,211,-188,-166
-102,-211,-109,157,4,-160,227,263,176,211,-188,-166
-102,-211,-109,157,4,-160,227,263,176,212,-188,-165
-102,-210,-108,156,3,-159,227,263,176,212,-188,-165
-102,-210,-108,156,3,-159,227,263,176,212,-188,-165
-102,-209,-107,156,3,-158,226,262,175,211,-189,-165
-102,-209,-107,156,3,-158,226,262,176,210,-189,-165
-102,-209,-107,156,3,-158,227,262,176,210,-189,-165
-102,-209,-107,156,3,-158,227,263,176,210,-189,-165
-102,-209,-107,156,3,-158,226,262,176,209,-190,-165
-102,-209,-107,156,3,-158,226,262,176,209,-190,-166
-102,-209,-107,156,3,-158,226,262,176,209,-190,-166
-103,-209,-106,156,2,-157,226,262,176,210,-189,-165
-103,-209,-106,156,2,-157,226,261,176,210,-189,-165
-103,-209,-106,156,2,-157,226,261,176,210,-189,-165
-103,-209,-106,156,2,-157,226,261,175,210,-189,-165
-102,-209,-107,156,3,-158,225,260,173,209,-190,-166
-103,-210,-107,157,2,-158,226,261,174,210,-189,-165
-103,-210,-107,157,2,-158,225,261,174,210,-190,-165
-103,-210,-107,157,2,-158,225,261,175,209,-190,-166
-104,-211,-107,158,2,-159,226,261,176,209,-190,-165
-104,-211,-107,158,2,-159,226,261,176,208,-191,-166
-104,-212,-108,158,2,-160,226,261,176,208,-191,-166
-104,-212,-108,158,2,-160,226,261,175,207,-191,-166
-104,-212,-108,158,2,-160,226,260,175,207,-191,-165
-104,-212,-108,158,2,-160,225,260,174,207,-191,-165
-104,-211,-107,158,2,-159,225,260,174,208,-191,-166
-104,-211,-107,158,2,-159,225,260,173,208,-191,-166
-105,-212,-107,159,1,-159,225,260,173,208,-191,-167
-106,-212,-106,159,0,-159,226,260,174,208,-190,-166
-106,-212,-106,159,0,-159,225,260,174,208,-191,-166
-106,-212,-106,159,0,-159,225,260,174,208,-191,-167
-106,-212,-106,159,0,-159,225,260,174,207,-191,-166
-106,-212,-106,159,0,-159,225,260,174,207,-190,-166
-105,-212,-107,159,1,-159,224,259,173,206,-191,-166
-105,-212,-107,159,1,-159,224,260,172,206,-191,-166
-105,-211,-106,158,1,-158,224,260,172,206,-191,-166
-105,-211,-106,158,1,-158,224,260,172,206,-190,-166
-104,-211,-107,158,2,-159,225,260,172,206,-191,-166
-104,-212,-108,158,2,-160,225,260,172,206,-191,-166
-104,-212,-108,158,2,-160,226,260,172,206,-191,-167
-104,-212,-108,158,2,-160,226,260,172,207,-191,-167
-104,-211,-107,158,2,-159,226,260,173,207,-190,-166
-104,-211,-107,158,2,-159,226,260,173,207,-190,-166
-104,-211,-107,158,2,-159,226,260,173,207,-190,-166
-104,-210,-106,157,1,-158,225,260,172,206,-191,-167
-104,-210,-106,157,1,-158,225,260,171,206,-191,-166
-104,-210,-106,157,1,-158,225,260,171,206,-191,-166
-103,-211,-108,157,3,-159,225,261,171,206,-191,-166
-103,-211,-108,157,3,-159,225,260,171,206,-191,-166
-103,-211,-108,157,3,-159,225,260,171,206,-191,-166
-103,-211,-108,157,3,-159,225,260,172,206,-191,-166
-103,-210,-107,157,2,-158,224,260,172,206,-191,-166
-103,-210,-107,157,2,-158,225,260,173,207,-191,-165
-103,-209,-106,156,2,-157,225,260,173,207,-190,-165
-103,-209,-106,156,2,-157,225,260,173,207,-190,-165
-103,-209,-106,156,2,-157,225,261,172,207,-190,-165
-103,-208,-105,156,1,-156,224,260,171,206,-191,-166
-103,-208,-105,156,1,-156,224,260,171,206,-191,-166
-103,-209,-106,156,2,-157,225,261,171,206,-190,-165
"
		-103","
		-209","
		-106","
		156","
		2","
		-157","
		225","
		261","
		172","
		206","
		-190","
		-165"
-102,-209,-107,156,3,-158,224,260,171,205,-191,-166
-102,-209,-107,156,3,-158,224,260,172,205,-191,-166
-102,-209,-107,156,3,-158,224,259,172,205,-191,-166
-102,-208,-106,155,2,-157,224,259,171,205,-191,-166
-102,-208,-106,155,2,-157,223,259,170,205,-191,-166
-102,-208,-106,155,2,-157,223,259,170,205,-191,-166
-103,-208,-105,156,1,-156,224,259,169,205,-192,-166
-103,-209,-106,156,2,-157,225,260,170,205,-191,-165
-103,-209,-106,156,2,-157,225,260,170,205,-191,-165
-103,-209,-106,156,2,-157,225,260,171,205,-191,-166
-103,-209,-106,156,2,-157,225,259,171,204,-191,-166
-104,-209,-105,157,1,-157,225,259,171,204,-191,-166
-104,-209,-105,157,1,-157,224,258,171,205,-191,-166
-104,-209,-105,157,1,-157,223,258,171,205,-191,-166
-104,-209,-105,157,1,-157,223,258,171,205,-191,-166
-104,-210,-106,157,1,-158,223,258,171,205,-191,-166
-105,-210,-105,158,0,-157,224,259,172,206,-191,-165
-105,-210,-105,158,0,-157,224,259,173,206,-191,-166
-105,-210,-105,158,0,-157,225,259,173,205,-191,-166
-105,-210,-105,158,0,-157,225,259,173,205,-191,-166
-104,-210,-106,157,1,-158,224,258,172,204,-192,-167
-104,-210,-106,157,1,-158,224,258,171,204,-192,-167
-104,-209,-105,157,1,-157,224,258,171,204,-191,-166
-104,-209,-105,157,1,-157,223,258,170,205,-191,-166
-104,-209,-105,157,1,-157,223,258,170,205,-191,-166
-104,-209,-105,157,1,-157,223,259,170,205,-191,-166
-104,-208,-104,156,0,-156,223,259,170,205,-191,-166
-103,-208,-105,156,1,-156,222,258,169,204,-192,-167
-103,-208,-105,156,1,-156,223,258,170,203,-193,-167
-103,-208,-105,156,1,-156,223,257,170,203,-193,-167
-104,-208,-104,156,0,-156,224,258,171,205,-192,-167
-104,-208,-104,156,0,-156,224,258,172,205,-192,-167
-103,-207,-104,155,1,-155,223,257,171,204,-192,-167
-103,-207,-104,155,1,-155,222,258,170,204,-192,-167
-103,-206,-103,155,0,-154,222,258,171,204,-192,-167
-103,-206,-103,155,0,-154,223,258,171,203,-192,-167
-103,-206,-103,155,0,-154,223,258,171,203,-192,-167
-103,-206,-103,155,0,-154,223,258,170,202,-192,-167
-103,-206,-103,155,0,-154,224,258,170,202,-192,-167
-103,-206,-103,155,0,-154,224,258,169,202,-192,-167
-103,-206,-103,155,0,-154,224,258,169,203,-193,-167
-103,-205,-102,154,0,-153,223,257,168,202,-193,-168
-102,-205,-103,154,1,-154,222,257,168,203,-193,-167
-102,-204,-102,153,0,-153,222,257,168,203,-193,-167
-102,-204,-102,153,0,-153,222,257,169,204,-192,-167
-102,-203,-101,153,0,-152,220,256,168,203,-193,-167
-102,-203,-101,153,0,-152,221,257,169,202,-193,-167
-102,-203,-101,153,0,-152,221,256,169,202,-194,-167
-102,-203,-101,153,0,-152,221,256,169,202,-194,-167
-102,-203,-101,153,0,-152,221,256,168,202,-194,-167
-102,-202,-100,152,-1,-151,222,256,167,202,-194,-167
-102,-202,-100,152,-1,-151,222,256,168,202,-194,-167
-102,-202,-100,152,-1,-151,222,256,168,203,-194,-167
-102,-201,-99,152,-1,-150,221,256,168,203,-193,-166
-102,-201,-99,152,-1,-150,221,257,168,203,-193,-166
-101,-201,-100,151,0,-150,221,256,167,201,-194,-167
-101,-201,-100,151,0,-150,221,256,167,201,-194,-167
-101,-201,-100,151,0,-150,221,255,167,200,-195,-168
-101,-201,-100,151,0,-150,221,255,166,200,-195,-168
-102,-201,-99,152,-1,-150,222,255,167,201,-194,-168
-102,-200,-98,151,-2,-149,221,254,166,200,-195,-169
-102,-200,-98,151,-2,-149,221,254,166,200,-195,-169
-103,-200,-97,152,-3,-148,221,255,168,201,-194,-167
-103,-200,-97,152,-3,-148,221,255,168,202,-193,-167
-103,-200,-97,152,-3,-148,221,255,168,202,-193,-167
-103,-200,-97,152,-3,-148,221,256,168,202,-193,-167
-103,-201,-98,152,-2,-149,220,256,168,202,-193,-167
-103,-201,-98,152,-2,-149,221,256,168,202,-193,-167
-103,-201,-98,152,-2,-149,221,256,168,202,-193,-167
-103,-201,-98,152,-2,-149,221,255,168,201,-194,-167
-103,-201,-98,152,-2,-149,221,255,169,201,-194,-167
-103,-200,-97,152,-3,-148,221,255,168,201,-194,-167
-103,-200,-97,152,-3,-148,221,255,168,201,-194,-168
-103,-200,-97,152,-3,-148,221,254,167,201,-194,-167
-103,-200,-97,152,-3,-148,220,254,166,201,-193,-167
-103,-199,-96,151,-3,-147,219,253,165,200,-194,-168
-103,-199,-96,151,-3,-147,219,253,164,200,-194,-168
-104,-199,-95,152,-4,-147,221,254,165,201,-193,-167
-104,-199,-95,152,-4,-147,221,254,166,201,-193,-167
-104,-199,-95,152,-4,-147,222,254,166,201,-193,-167
-103,-199,-96,151,-3,-147,221,253,166,200,-194,-168
-103,-198,-95,151,-4,-146,221,253,167,201,-194,-168
-103,-198,-95,151,-4,-146,220,253,168,201,-194,-168
-103,-198,-95,151,-4,-146,220,253,168,201,-194,-168
-103,-197,-94,150,-4,-145,220,253,168,201,-194,-168
-103,-197,-94,150,-4,-145,219,254,167,201,-194,-168
-103,-197,-94,150,-4,-145,219,254,167,200,-194,-168
-103,-197,-94,150,-4,-145,219,254,167,200,-194,-168
-103,-197,-94,150,-4,-145,220,254,166,200,-194,-168
-102,-196,-94,149,-4,-145,219,253,166,199,-195,-169
-102,-196,-94,149,-4,-145,219,253,166,199,-195,-169
-102,-196,-94,149,-4,-145,219,253,166,199,-195,-168
-101,-196,-95,149,-3,-145,220,253,166,200,-194,-168
-101,-195,-94,148,-3,-144,219,252,165,199,-195,-169
-101,-195,-94,148,-3,-144,219,252,165,199,-195,-169
-102,-196,-94,149,-4,-145,220,253,166,200,-194,-168
-101,-196,-95,149,-3,-145,220,253,167,200,-194,-168
-101,-196,-95,149,-3,-145,220,253,168,200,-194,-168
-101,-196,-95,149,-3,-145,220,253,168,200,-195,-169
-101,-196,-95,149,-3,-145,220,253,168,200,-195,-169
-102,-196,-94,149,-4,-145,220,253,167,200,-195,-169
-102,-196,-94,149,-4,-145,220,253,166,199,-195,-169
-102,-195,-93,149,-4,-144,220,253,165,199,-194,-169
-101,-195,-94,148,-3,-144,219,251,163,198,-195,-169
-101,-195,-94,148,-3,-144,219,251,162,198,-195,-169
-101,-194,-93,148,-4,-143,219,252,163,198,-195,-169
-100,-194,-94,147,-3,-144,219,252,164,198,-195,-169
-100,-194,-94,147,-3,-144,219,252,165,198,-194,-169
-100,-194,-94,147,-3,-144,219,252,165,199,-195,-169
-100,-193,-93,147,-3,-143,218,251,165,198,-196,-170
-100,-193,-93,147,-3,-143,218,251,165,198,-196,-170
-99,-193,-94,146,-2,-143,218,251,165,198,-196,-170
-100,-192,-92,146,-4,-142,218,250,165,198,-196,-170
-100,-192,-92,146,-4,-142,218,250,165,198,-196,-170
-101,-191,-90,146,-5,-140,217,250,165,198,-196,-170
-102,-191,-89,147,-6,-140,217,250,164,198,-196,-170
-102,-191,-89,147,-6,-140,217,250,164,197,-196,-170
-102,-191,-89,147,-6,-140,217,250,163,197,-196,-170
-102,-191,-89,147,-6,-140,217,250,163,197,-196,-170
-102,-191,-89,147,-6,-140,217,251,163,197,-196,-170
-102,-191,-89,147,-6,-140,217,251,163,197,-196,-170
-102,-191,-89,147,-6,-140,217,251,163,197,-196,-170
-102,-191,-89,147,-6,-140,218,251,163,197,-195,-170
-101,-191,-90,146,-5,-140,218,251,163,197,-195,-170
-101,-191,-90,146,-5,-140,218,251,163,198,-195,-170
-101,-191,-90,146,-5,-140,218,250,163,198,-195,-170
-101,-191,-90,146,-5,-140,218,250,163,198,-195,-170
-101,-191,-90,146,-5,-140,218,250,163,197,-195,-170
-101,-192,-91,147,-5,-141,219,250,163,197,-195,-170
-101,-192,-91,147,-5,-141,218,249,163,197,-195,-170
-101,-192,-91,147,-5,-141,218,249,163,196,-196,-170
-102,-192,-90,147,-6,-141,219,250,164,197,-195,-169
-102,-192,-90,147,-6,-141,219,250,164,197,-194,-169
-101,-192,-91,147,-5,-141,217,250,163,196,-195,-170
-101,-192,-91,147,-5,-141,217,250,162,196,-195,-170
-101,-192,-91,147,-5,-141,217,250,162,197,-195,-170
-101,-192,-91,147,-5,-141,217,249,162,196,-195,-170
-101,-192,-91,147,-5,-141,217,249,162,196,-195,-170
-101,-192,-91,147,-5,-141,218,249,163,196,-196,-170
-101,-192,-91,147,-5,-141,218,249,163,196,-196,-170
-101,-191,-90,146,-5,-140,218,249,163,196,-196,-170
-101,-191,-90,146,-5,-140,218,250,163,196,-196,-169
-101,-191,-90,146,-5,-140,218,250,163,197,-195,-169
-100,-190,-90,145,-5,-140,217,250,162,196,-196,-170
-100,-190,-90,145,-5,-140,217,250,162,197,-195,-169
-100,-190,-90,145,-5,-140,217,250,162,197,-195,-169
-100,-190,-90,145,-5,-140,217,250,162,196,-195,-170
-100,-190,-90,145,-5,-140,217,249,163,196,-195,-170
-100,-189,-89,145,-5,-139,217,249,163,196,-195,-170
-100,-190,-90,145,-5,-140,217,249,163,196,-196,-170
-100,-190,-90,145,-5,-140,217,249,162,196,-196,-170
-100,-190,-90,145,-5,-140,217,249,163,196,-196,-170
-100,-190,-90,145,-5,-140,217,249,163,196,-196,-169
-100,-190,-90,145,-5,-140,217,249,162,195,-195,-169
-100,-190,-90,145,-5,-140,218,249,162,195,-195,-169
-100,-190,-90,145,-5,-140,218,249,162,195,-195,-169
-100,-190,-90,145,-5,-140,218,250,163,195,-195,-169
-100,-190,-90,145,-5,-140,218,250,163,195,-195,-169
-100,-190,-90,145,-5,-140,219,251,164,195,-195,-169
-100,-190,-90,145,-5,-140,218,251,164,196,-195,-169
-100,-190,-90,145,-5,-140,218,251,165,196,-195,-169
-100,-190,-90,145,-5,-140,218,251,165,197,-195,-168
-99,-190,-91,145,-4,-140,218,251,165,197,-195,-168
-99,-190,-91,145,-4,-140,218,251,165,197,-195,-168
-99,-190,-91,145,-4,-140,218,250,164,197,-195,-167
-99,-190,-91,145,-4,-140,218,250,163,197,-194,-167
-99,-189,-90,144,-4,-139,218,250,163,196,-194,-168
-99,-190,-91,145,-4,-140,218,250,162,196,-194,-168
-99,-190,-91,145,-4,-140,218,249,162,196,-194,-168
-100,-190,-90,145,-5,-140,217,249,162,196,-195,-168
-100,-190,-90,145,-5,-140,217,249,162,196,-195,-168
-100,-190,-90,145,-5,-140,216,249,162,196,-195,-168
-101,-190,-89,146,-6,-139,217,250,163,197,-194,-167
-100,-190,-90,145,-5,-140,216,248,162,197,-194,-168
-100,-190,-90,145,-5,-140,217,249,162,197,-194,-167
-100,-190,-90,145,-5,-140,217,249,161,197,-194,-168
-100,-190,-90,145,-5,-140,218,249,161,197,-195,-168
-100,-190,-90,145,-5,-140,218,249,162,196,-195,-168
-100,-190,-90,145,-5,-140,219,249,162,196,-195,-169
-100,-190,-90,145,-5,-140,219,249,162,195,-195,-169
-100,-190,-90,145,-5,-140,219,249,162,195,-196,-169
-100,-190,-90,145,-5,-140,219,248,162,195,-195,-169
-100,-189,-89,145,-5,-139,219,248,162,195,-195,-169
-100,-189,-89,145,-5,-139,218,248,161,195,-195,-169
-101,-189,-88,145,-6,-138,218,248,161,195,-194,-169
-101,-188,-87,145,-7,-137,218,248,161,196,-194,-169
-101,-188,-87,145,-7,-137,218,248,161,196,-194,-169
-101,-188,-87,145,-7,-137,218,248,161,196,-194,-169
-101,-188,-87,145,-7,-137,217,248,162,195,-194,-169
-101,-187,-86,144,-7,-136,217,249,162,195,-194,-169
-101,-187,-86,144,-7,-136,217,249,163,195,-194,-169
-101,-187,-86,144,-7,-136,217,249,163,195,-194,-169
-100,-187,-87,144,-6,-137,216,248,162,194,-195,-170
-100,-187,-87,144,-6,-137,216,248,161,194,-195,-170
-100,-186,-86,143,-7,-136,216,248,161,194,-195,-170
-100,-187,-87,144,-6,-137,216,248,161,194,-195,-170
-100,-187,-87,144,-6,-137,216,247,161,193,-195,-169
-100,-187,-87,144,-6,-137,217,247,161,192,-195,-169
-100,-187,-87,144,-6,-137,217,247,160,192,-196,-170
-100,-187,-87,144,-6,-137,217,247,161,192,-196,-170
-100,-186,-86,143,-7,-136,217,247,161,193,-195,-169
-100,-186,-86,143,-7,-136,218,247,161,194,-195,-169
-100,-186,-86,143,-7,-136,218,248,161,194,-194,-169
-100,-185,-85,143,-7,-135,218,248,161,194,-194,-168
-100,-185,-85,143,-7,-135,218,248,162,195,-193,-168
-100,-185,-85,143,-7,-135,218,248,162,195,-193,-167
-100,-185,-85,143,-7,-135,218,248,162,195,-193,-167
-99,-185,-86,142,-6,-135,216,247,161,194,-194,-168
-99,-185,-86,142,-6,-135,216,247,161,194,-194,-169
-99,-185,-86,142,-6,-135,216,247,161,195,-194,-169
-99,-185,-86,142,-6,-135,216,247,161,194,-194,-169
-99,-185,-86,142,-6,-135,216,247,161,194,-194,-169
-99,-184,-85,142,-7,-134,216,246,160,194,-194,-170
-99,-184,-85,142,-7,-134,215,246,160,194,-194,-169
-98,-184,-86,141,-6,-135,215,246,160,194,-194,-169
-98,-184,-86,141,-6,-135,215,247,160,194,-195,-169
-99,-184,-85,142,-7,-134,215,247,161,193,-195,-169
-99,-184,-85,142,-7,-134,216,248,161,194,-195,-169
-99,-184,-85,142,-7,-134,216,248,161,194,-195,-169
-99,-184,-85,142,-7,-134,216,248,162,194,-194,-169
-99,-184,-85,142,-7,-134,216,248,162,194,-195,-169
-99,-183,-84,141,-7,-133,217,248,162,194,-195,-169
-98,-183,-85,141,-6,-134,216,246,161,193,-196,-170
-99,-183,-84,141,-7,-133,217,247,161,194,-195,-169
-99,-182,-83,141,-8,-132,216,245,160,193,-196,-170
-98,-182,-84,140,-7,-133,216,245,159,193,-196,-170
-98,-182,-84,140,-7,-133,216,245,159,192,-196,-170
-98,-182,-84,140,-7,-133,216,245,159,192,-196,-170
-98,-182,-84,140,-7,-133,216,245,159,193,-196,-170
-98,-182,-84,140,-7,-133,216,245,159,193,-196,-170
-98,-181,-83,140,-7,-132,217,246,160,193,-195,-169
-98,-181,-83,140,-7,-132,217,247,161,194,-195,-169
-98,-180,-82,139,-8,-131,217,247,161,194,-194,-169
-98,-179,-81,139,-8,-130,218,248,162,194,-194,-168
-97,-178,-81,138,-8,-129,218,248,163,194,-194,-168
-97,-176,-79,137,-9,-127,219,249,165,195,-192,-167
-97,-174,-77,136,-10,-125,219,250,165,195,-192,-166
-97,-173,-76,135,-10,-124,220,251,167,196,-191,-165
-96,-172,-76,134,-10,-124,221,251,167,196,-191,-165
-96,-171,-75,134,-10,-123,222,251,167,197,-190,-165
-96,-170,-74,133,-11,-122,221,251,167,197,-191,-165
-95,-169,-74,132,-10,-121,222,253,167,198,-190,-164
-95,-168,-73,132,-11,-120,222,253,167,198,-191,-165
-96,-168,-72,132,-12,-120,224,255,169,199,-189,-164
-96,-167,-71,132,-12,-119,224,254,168,199,-190,-165
-96,-167,-71,132,-12,-119,224,254,168,199,-190,-165
-97,-166,-69,132,-14,-117,225,254,168,198,-190,-165
-98,-166,-68,132,-15,-117,226,255,169,199,-190,-164
-98,-166,-68,132,-15,-117,226,255,168,199,-190,-165
-98,-166,-68,132,-15,-117,226,255,168,199,-190,-165
-98,-166,-68,132,-15,-117,226,255,169,199,-189,-164
-97,-166,-69,132,-14,-117,225,254,169,199,-190,-165
-96,-165,-69,131,-13,-117,224,255,171,200,-189,-164
-95,-164,-69,130,-13,-116,222,253,171,199,-189,-164
-95,-164,-69,130,-13,-116,221,253,171,200,-188,-163
-94,-163,-69,129,-12,-116,219,252,170,200,-188,-163
-94,-163,-69,129,-12,-116,219,252,169,200,-188,-162
-94,-163,-69,129,-12,-116,218,251,169,200,-188,-162
-94,-164,-70,129,-12,-117,218,251,168,200,-187,-161
-94,-165,-71,130,-11,-118,216,249,167,199,-187,-162
-95,-165,-70,130,-12,-117,215,246,166,198,-188,-162
-95,-166,-71,131,-12,-118,214,245,166,198,-188,-162
-95,-166,-71,131,-12,-118,213,243,165,198,-188,-162
-94,-166,-72,130,-11,-119,211,241,164,196,-189,-163
-94,-167,-73,131,-10,-120,211,242,165,197,-188,-162
-93,-167,-74,130,-9,-120,210,242,164,197,-189,-163
-92,-168,-76,130,-8,-122,209,243,164,197,-189,-163
-91,-168,-77,130,-7,-122,209,243,164,197,-189,-163
-90,-169,-79,130,-5,-124,208,243,164,197,-189,-163
-90,-170,-80,130,-5,-125,208,243,163,197,-189,-163
-90,-171,-81,131,-4,-126,209,243,164,197,-188,-162
-91,-171,-80,131,-5,-125,210,243,164,197,-189,-163
-92,-171,-79,132,-6,-125,210,243,163,196,-189,-163
-93,-172,-79,133,-7,-125,211,243,163,196,-188,-163
-94,-173,-79,134,-7,-126,212,244,163,196,-188,-163
-95,-174,-79,135,-8,-126,211,243,161,195,-190,-164
-96,-175,-79,136,-8,-127,212,243,160,194,-190,-165
-96,-176,-80,136,-8,-128,211,242,157,192,-192,-166
-96,-178,-82,137,-7,-130,210,242,156,191,-193,-167
-97,-180,-83,139,-7,-131,210,242,156,191,-194,-168
-98,-181,-83,140,-7,-132,210,242,155,190,-195,-169
-99,-182,-83,141,-8,-132,210,241,154,188,-197,-171
-99,-183,-84,141,-7,-133,210,240,154,187,-198,-172
-99,-183,-84,141,-7,-133,210,240,154,186,-199,-172
-100,-183,-83,142,-8,-133,210,239,155,185,-200,-173
-100,-183,-83,142,-8,-133,211,239,155,185,-200,-173
-100,-182,-82,141,-9,-132,211,239,155,185,-200,-172
-100,-181,-81,141,-9,-131,211,238,154,185,-200,-173
-100,-181,-81,141,-9,-131,211,238,153,186,-199,-172
-101,-180,-79,141,-11,-129,211,238,152,187,-199,-172
-100,-180,-80,140,-10,-130,211,239,152,187,-198,-171
-100,-180,-80,140,-10,-130,212,239,152,188,-198,-171
-99,-180,-81,140,-9,-130,212,239,152,188,-198,-171
-99,-180,-81,140,-9,-130,211,239,153,188,-198,-171
-99,-180,-81,140,-9,-130,211,239,154,188,-198,-171
-99,-180,-81,140,-9,-130,211,239,155,188,-198,-171
-99,-180,-81,140,-9,-130,211,239,155,188,-198,-171
-99,-181,-82,140,-8,-131,211,239,155,188,-198,-172
-99,-181,-82,140,-8,-131,210,239,155,187,-198,-172
"
		-99","
		-181","
		-82","
		140","
		-8","
		-131","
		211","
		239","
		155","
		188","
		-197","
		-171"
-99,-180,-81,140,-9,-130,211,239,155,188,-197,-171
-100,-180,-80,140,-10,-130,211,239,154,188,-197,-171
-100,-180,-80,140,-10,-130,211,239,154,187,-197,-171
-100,-180,-80,140,-10,-130,211,238,153,187,-197,-171
-100,-180,-80,140,-10,-130,211,238,153,187,-197,-170
-100,-180,-80,140,-10,-130,210,238,153,188,-197,-170
-100,-180,-80,140,-10,-130,210,238,154,188,-197,-171
-100,-180,-80,140,-10,-130,210,238,154,187,-197,-171
-100,-180,-80,140,-10,-130,210,238,154,188,-198,-171
-99,-179,-80,139,-9,-129,210,238,154,187,-198,-172
-99,-179,-80,139,-9,-129,210,238,155,187,-198,-172
-99,-179,-80,139,-9,-129,211,238,155,187,-198,-172
-98,-178,-80,138,-9,-129,211,238,155,187,-197,-172
-98,-178,-80,138,-9,-129,211,239,155,187,-197,-172
-98,-178,-80,138,-9,-129,211,239,155,187,-197,-171
-98,-178,-80,138,-9,-129,211,238,154,187,-197,-171
-98,-178,-80,138,-9,-129,211,238,154,187,-197,-171
-99,-178,-79,139,-10,-128,211,238,154,187,-197,-171
-99,-178,-79,139,-10,-128,211,238,153,187,-197,-171
-99,-178,-79,139,-10,-128,211,238,153,188,-197,-171
-99,-177,-78,138,-10,-127,211,238,153,188,-196,-171
-99,-177,-78,138,-10,-127,211,239,153,189,-196,-170
-99,-177,-78,138,-10,-127,211,239,153,189,-195,-170
-98,-177,-79,138,-9,-128,210,238,153,189,-196,-171
-98,-177,-79,138,-9,-128,210,239,153,189,-197,-171
-99,-177,-78,138,-10,-127,212,241,155,189,-196,-171
-99,-178,-79,139,-10,-128,214,242,156,188,-198,-172
-101,-179,-78,140,-11,-128,218,247,158,187,-199,-174
-102,-181,-79,142,-11,-130,223,254,161,185,-203,-176
-103,-184,-81,144,-11,-132,230,264,164,183,-207,-180
-103,-187,-84,145,-9,-135,237,277,169,180,-211,-184
-103,-191,-88,147,-7,-139,247,293,177,180,-214,-187
-102,-194,-92,148,-5,-143,254,308,185,179,-218,-191
-101,-195,-94,148,-3,-144,261,322,192,180,-220,-193
-98,-195,-97,147,0,-146,266,333,200,182,-220,-193
-95,-191,-96,143,1,-143,268,342,209,189,-215,-189
-90,-184,-94,137,2,-139,267,349,221,199,-208,-183
-83,-175,-92,129,5,-133,264,356,236,216,-195,-174
-75,-162,-87,119,6,-124,259,363,257,237,-179,-161
-66,-145,-79,106,7,-112,254,368,285,265,-158,-145
-57,-125,-68,91,6,-96,247,369,315,299,-132,-125
-48,-100,-52,74,2,-76,238,360,343,337,-101,-102
-42,-70,-28,56,-7,-49,227,338,361,376,-68,-76
-37,-38,-1,38,-18,-19,213,302,370,418,-31,-48
-33,-5,28,19,-30,12,194,253,370,463,8,-18
-29,28,57,1,-43,43,172,197,366,515,51,14
-24,56,80,-16,-52,68,150,139,364,573,96,46
-19,79,98,-30,-58,89,125,82,361,631,137,74
-15,93,108,-39,-61,101,102,35,354,682,173,98
-15,96,111,-40,-63,104,85,2,335,716,197,114
-19,90,109,-35,-64,100,75,-18,301,726,208,121
-27,78,105,-25,-66,92,69,-29,251,705,202,117
-39,61,100,-11,-69,81,69,-30,189,655,180,104
-53,37,90,8,-71,64,71,-23,120,576,142,81
-66,9,75,29,-70,42,75,-11,57,483,94,52
-77,-20,57,49,-67,19,79,1,9,390,44,21
-85,-49,36,67,-60,-6,83,14,-21,306,-6,-10
-92,-78,14,85,-53,-32,89,30,-34,239,-53,-42
-98,-107,-9,103,-44,-58,97,48,-35,190,-94,-71
-103,-132,-29,118,-37,-80,108,65,-30,157,-128,-97
-107,-152,-45,130,-31,-98,121,80,-19,142,-153,-118
-110,-166,-56,138,-27,-111,133,94,-5,137,-171,-135
-113,-177,-64,145,-24,-120,143,106,8,136,-185,-149
-114,-186,-72,150,-21,-129,152,118,21,137,-194,-159
-114,-191,-77,153,-18,-134,157,127,33,139,-200,-165
-114,-193,-79,154,-17,-136,163,138,48,144,-202,-168
-113,-193,-80,153,-16,-136,169,150,64,150,-202,-170
-111,-192,-81,152,-15,-136,174,163,81,157,-201,-170
-108,-189,-81,149,-13,-135,180,177,98,164,-199,-169
-106,-184,-78,145,-14,-131,185,188,113,170,-197,-168
-104,-179,-75,142,-14,-127,191,200,128,178,-193,-166
-101,-174,-73,138,-14,-123,196,209,138,183,-191,-164
-100,-169,-69,135,-15,-119,200,218,146,187,-189,-163
-99,-167,-68,133,-15,-117,205,226,152,191,-187,-162
-98,-166,-68,132,-15,-117,209,233,157,194,-186,-161
-97,-165,-68,131,-14,-116,210,237,159,195,-186,-161
-97,-165,-68,131,-14,-116,212,241,160,195,-187,-162
-97,-167,-70,132,-13,-118,214,244,163,196,-187,-162
-98,-168,-70,133,-14,-119,214,246,164,195,-189,-164
-98,-168,-70,133,-14,-119,213,246,166,195,-190,-165
-98,-168,-70,133,-14,-119,213,246,167,194,-191,-166
-98,-168,-70,133,-14,-119,213,247,168,195,-192,-167
-98,-168,-70,133,-14,-119,213,248,169,195,-191,-167
-97,-167,-70,132,-13,-118,213,249,169,195,-191,-166
-97,-167,-70,132,-13,-118,214,250,169,195,-191,-166
-96,-167,-71,132,-12,-119,214,250,168,195,-192,-166
-96,-167,-71,132,-12,-119,215,250,169,195,-192,-166
-96,-168,-72,132,-12,-120,216,252,171,196,-192,-166
-97,-168,-71,133,-13,-119,217,253,171,197,-192,-166
-97,-168,-71,133,-13,-119,217,253,173,198,-192,-167
-96,-168,-72,132,-12,-120,218,254,174,199,-193,-167
-96,-168,-72,132,-12,-120,219,254,176,200,-192,-166
-96,-167,-71,132,-12,-119,219,254,175,200,-193,-166
-95,-167,-72,131,-11,-119,220,254,176,200,-192,-165
-95,-166,-71,131,-12,-118,222,255,176,200,-191,-165
-95,-166,-71,131,-12,-118,223,256,176,200,-191,-164
-95,-167,-72,131,-11,-119,224,256,176,200,-191,-164
-95,-167,-72,131,-11,-119,224,256,176,199,-191,-164
-95,-167,-72,131,-11,-119,225,256,177,199,-191,-165
-96,-168,-72,132,-12,-120,225,257,178,199,-190,-164
-96,-168,-72,132,-12,-120,225,257,179,200,-190,-164
-96,-168,-72,132,-12,-120,224,257,180,201,-190,-163
-96,-167,-71,132,-12,-119,222,257,180,201,-190,-164
-96,-167,-71,132,-12,-119,222,257,180,202,-188,-163
-96,-166,-70,131,-13,-118,222,258,181,203,-187,-162
-95,-166,-71,131,-12,-118,222,259,181,203,-186,-162
-94,-165,-71,130,-11,-118,221,258,181,202,-187,-163
-94,-165,-71,130,-11,-118,221,258,183,202,-186,-163
-94,-165,-71,130,-11,-118,221,258,184,202,-186,-164
-93,-165,-72,129,-10,-118,221,258,186,202,-186,-164
-93,-165,-72,129,-10,-118,221,258,188,202,-186,-164
-93,-165,-72,129,-10,-118,221,259,189,203,-185,-164
-93,-164,-71,129,-11,-117,220,258,189,203,-186,-164
-93,-163,-70,128,-11,-116,220,259,189,203,-185,-164
-93,-163,-70,128,-11,-116,221,260,189,204,-184,-163
-93,-162,-69,128,-12,-115,222,261,190,205,-183,-162
-93,-162,-69,128,-12,-115,222,261,191,205,-183,-162
-93,-162,-69,128,-12,-115,223,261,191,205,-183,-162
-93,-162,-69,128,-12,-115,223,261,193,206,-184,-162
-93,-163,-70,128,-11,-116,223,261,196,206,-184,-162
-93,-162,-69,128,-12,-115,223,261,197,207,-184,-161
-93,-162,-69,128,-12,-115,223,261,198,208,-183,-161
-93,-161,-68,127,-12,-114,221,261,197,208,-184,-161
-93,-160,-67,127,-13,-113,221,261,198,209,-183,-160
-93,-159,-66,126,-13,-112,221,262,197,210,-182,-159
-92,-159,-67,126,-12,-113,220,261,196,210,-183,-160
-92,-159,-67,126,-12,-113,220,262,196,210,-183,-159
-92,-159,-67,126,-12,-113,220,263,197,211,-182,-159
-92,-159,-67,126,-12,-113,221,263,198,211,-182,-159
-92,-159,-67,126,-12,-113,221,264,200,212,-182,-159
-91,-158,-67,125,-12,-112,221,265,201,213,-181,-158
-91,-157,-66,124,-12,-111,220,265,201,213,-182,-159
-90,-156,-66,123,-12,-111,220,266,202,215,-180,-158
-90,-155,-65,123,-12,-110,219,266,202,215,-180,-158
-89,-154,-65,122,-12,-109,219,266,202,216,-180,-157
-89,-153,-64,121,-12,-108,218,267,202,216,-180,-157
-88,-153,-65,121,-11,-109,218,267,202,216,-180,-156
-88,-153,-65,121,-11,-109,218,268,202,217,-180,-156
-88,-153,-65,121,-11,-109,218,269,202,218,-179,-156
-88,-153,-65,121,-11,-109,218,269,203,218,-179,-156
-88,-152,-64,120,-12,-108,218,270,203,220,-178,-155
-88,-152,-64,120,-12,-108,218,270,204,221,-177,-155
-88,-151,-63,120,-12,-107,218,270,204,222,-177,-155
-87,-150,-63,119,-12,-106,218,271,205,223,-176,-153
-87,-149,-62,118,-12,-105,218,271,205,224,-175,-153
-87,-149,-62,118,-12,-105,218,273,207,225,-174,-152
-86,-148,-62,117,-12,-105,219,274,208,226,-173,-152
-86,-148,-62,117,-12,-105,219,275,209,227,-172,-151
-86,-148,-62,117,-12,-105,220,276,210,228,-171,-150
-86,-148,-62,117,-12,-105,220,277,212,229,-170,-150
-85,-147,-62,116,-11,-104,218,277,213,230,-170,-150
-85,-146,-61,116,-12,-103,218,278,214,232,-168,-149
-84,-145,-61,115,-11,-103,218,278,215,233,-168,-149
-83,-144,-61,114,-11,-102,217,279,215,234,-166,-149
-83,-143,-60,113,-11,-101,218,280,216,236,-165,-148
-82,-142,-60,112,-11,-101,217,281,217,237,-164,-148
-82,-141,-59,112,-11,-100,218,282,219,238,-162,-146
-81,-140,-59,111,-11,-99,218,283,220,239,-162,-147
-81,-139,-58,110,-11,-98,218,284,223,240,-161,-146
-80,-139,-59,110,-10,-99,219,285,225,241,-160,-144
-80,-138,-58,109,-11,-98,218,285,226,242,-159,-144
-80,-136,-56,108,-12,-96,218,287,227,245,-157,-143
-79,-135,-56,107,-11,-95,218,288,227,246,-157,-142
-78,-134,-56,106,-11,-95,218,289,228,248,-155,-141
-77,-133,-56,105,-10,-94,218,291,230,251,-153,-140
-76,-132,-56,104,-10,-94,218,293,232,253,-153,-139
-76,-132,-56,104,-10,-94,219,295,236,255,-151,-138
-75,-132,-57,104,-9,-94,219,297,240,257,-150,-137
-75,-131,-56,103,-9,-93,219,297,242,258,-150,-137
-75,-131,-56,103,-9,-93,219,299,245,260,-149,-137
-75,-130,-55,103,-10,-92,220,301,248,262,-148,-135
-74,-129,-55,102,-9,-92,220,302,250,264,-147,-135
-73,-128,-55,101,-9,-91,221,304,253,267,-146,-134
-72,-127,-55,100,-8,-91,221,306,255,269,-145,-133
-71,-125,-54,98,-8,-89,221,307,258,271,-143,-132
-70,-124,-54,97,-8,-89,220,309,260,273,-142,-131
-70,-124,-54,97,-8,-89,221,311,264,276,-141,-130
-70,-123,-53,97,-8,-88,221,314,267,278,-139,-129
-70,-122,-52,96,-9,-87,222,316,271,281,-137,-127
-69,-122,-53,96,-8,-87,221,317,274,284,-135,-127
-69,-121,-52,95,-8,-86,221,320,277,288,-133,-125
-68,-120,-52,94,-8,-86,220,321,280,291,-131,-124
-68,-119,-51,94,-8,-85,219,324,283,295,-128,-122
-67,-117,-50,92,-8,-83,218,325,287,299,-126,-121
-66,-116,-50,91,-8,-83,218,327,290,303,-124,-120
-66,-115,-49,91,-8,-82,218,330,294,307,-121,-118
-65,-114,-49,90,-8,-81,217,332,298,310,-119,-117
-65,-113,-48,89,-8,-80,218,335,303,314,-116,-115
-64,-112,-48,88,-8,-80,218,336,307,317,-114,-114
-64,-111,-47,88,-8,-79,218,339,312,322,-111,-111
-63,-109,-46,86,-8,-77,218,341,316,326,-109,-110
-62,-108,-46,85,-8,-77,217,343,320,331,-106,-108
-61,-106,-45,84,-8,-75,216,345,324,336,-103,-106
-60,-104,-44,82,-8,-74,216,347,328,341,-100,-104
-58,-102,-44,80,-7,-73,215,350,332,346,-97,-102
-57,-99,-42,78,-7,-70,215,352,337,351,-94,-100
-56,-98,-42,77,-7,-70,214,354,341,356,-91,-98
-55,-96,-41,76,-7,-68,214,356,346,361,-88,-96
-54,-93,-39,74,-7,-66,214,358,352,366,-85,-94
-52,-91,-39,72,-6,-65,213,359,356,370,-83,-92
-51,-89,-38,70,-6,-63,213,360,362,376,-80,-90
-49,-86,-37,68,-6,-61,213,362,367,382,-76,-87
-47,-83,-36,65,-5,-59,212,363,372,387,-73,-84
-46,-81,-35,64,-5,-58,212,365,377,393,-68,-81
-44,-78,-34,61,-5,-56,211,367,380,398,-66,-79
-42,-75,-33,59,-4,-54,211,369,383,404,-62,-76
-41,-72,-31,57,-5,-51,211,370,387,408,-59,-74
-40,-70,-30,55,-5,-50,210,372,392,414,-55,-71
-39,-68,-29,54,-5,-48,210,373,397,419,-52,-69
-37,-65,-28,51,-4,-46,210,374,402,423,-49,-66
-35,-63,-28,49,-3,-45,209,373,406,428,-47,-65
-34,-61,-27,48,-3,-44,208,374,411,433,-43,-62
-32,-59,-27,46,-2,-43,207,374,416,438,-39,-60
-30,-56,-26,43,-2,-41,205,374,418,442,-37,-58
-28,-54,-26,41,-1,-40,204,374,421,447,-34,-56
-27,-52,-25,40,-1,-38,204,373,423,451,-31,-54
-26,-51,-25,39,0,-38,203,372,425,455,-29,-53
-25,-49,-24,37,0,-36,203,371,427,458,-28,-52
-24,-48,-24,36,0,-36,203,370,430,461,-25,-50
-24,-47,-23,36,0,-35,202,368,431,463,-25,-50
-24,-46,-22,35,-1,-34,202,367,434,465,-23,-49
-24,-45,-21,35,-1,-33,202,366,436,467,-22,-48
-24,-44,-20,34,-2,-32,200,364,436,467,-22,-48
-25,-44,-19,35,-3,-31,201,362,438,468,-21,-47
-25,-44,-19,35,-3,-31,201,360,437,467,-22,-47
-26,-44,-18,35,-4,-31,200,356,436,465,-23,-48
-27,-46,-19,37,-4,-32,201,354,434,462,-25,-49
-28,-47,-19,38,-4,-33,201,351,431,458,-27,-50
-29,-49,-20,39,-4,-34,201,347,428,455,-29,-52
-31,-52,-21,42,-5,-36,200,343,423,450,-33,-54
-33,-54,-21,44,-6,-37,201,340,420,445,-36,-56
-35,-57,-22,46,-6,-39,201,336,415,439,-39,-59
-36,-60,-24,48,-6,-42,201,333,409,434,-43,-61
-39,-63,-24,51,-7,-43,201,330,403,428,-46,-63
-41,-66,-25,54,-8,-45,201,325,395,420,-51,-67
-43,-70,-27,57,-8,-48,201,322,389,413,-56,-70
-45,-74,-29,60,-8,-51,201,318,381,405,-60,-74
-47,-77,-30,62,-8,-53,201,314,374,396,-66,-77
-49,-81,-32,65,-8,-56,201,311,367,388,-72,-81
-52,-85,-33,69,-9,-59,201,307,359,380,-77,-85
-54,-89,-35,72,-9,-62,201,304,352,372,-83,-89
-57,-93,-36,75,-10,-64,202,301,345,364,-87,-91
-59,-97,-38,78,-10,-67,202,298,336,356,-92,-95
-61,-101,-40,81,-10,-70,202,295,328,349,-97,-99
-63,-104,-41,84,-11,-72,201,291,319,340,-102,-103
-65,-108,-43,87,-11,-75,201,289,310,332,-107,-107
-68,-112,-44,90,-12,-78,203,287,303,325,-111,-109
-70,-116,-46,93,-12,-81,203,284,296,317,-116,-112
-72,-120,-48,96,-12,-84,204,282,289,310,-120,-116
-74,-123,-49,99,-12,-86,204,278,281,303,-125,-120
-76,-127,-51,102,-12,-89,205,276,274,296,-129,-122
-77,-130,-53,104,-12,-91,205,274,268,290,-132,-125
-78,-132,-54,105,-12,-93,205,271,262,284,-137,-128
-79,-135,-56,107,-11,-95,204,269,256,279,-140,-130
-80,-137,-57,109,-11,-97,204,268,250,273,-144,-133
-80,-140,-60,110,-10,-100,205,267,245,268,-147,-135
-81,-142,-61,112,-10,-101,205,265,240,263,-150,-137
-82,-144,-62,113,-10,-103,205,264,235,259,-153,-139
-83,-146,-63,115,-10,-104,206,263,231,256,-155,-141
-84,-148,-64,116,-10,-106,206,263,227,253,-158,-142
-85,-150,-65,118,-10,-107,207,262,223,250,-160,-144
-85,-152,-67,119,-9,-109,207,261,219,248,-161,-144
-85,-152,-67,119,-9,-109,207,261,214,246,-163,-146
-85,-153,-68,119,-8,-110,207,260,211,244,-165,-147
-85,-154,-69,120,-8,-111,207,259,207,241,-167,-148
-85,-154,-69,120,-8,-111,207,259,204,238,-169,-150
-85,-155,-70,120,-7,-112,208,259,203,237,-169,-150
-85,-156,-71,121,-7,-113,208,258,202,234,-171,-151
-86,-157,-71,122,-7,-114,209,259,201,233,-171,-151
-86,-157,-71,122,-7,-114,209,258,200,230,-173,-152
-86,-158,-72,122,-7,-115,209,257,198,228,-174,-152
-86,-158,-72,122,-7,-115,210,257,197,227,-174,-153
-86,-158,-72,122,-7,-115,210,257,195,225,-175,-153
-86,-158,-72,122,-7,-115,210,257,194,224,-175,-153
-86,-158,-72,122,-7,-115,211,257,193,223,-176,-154
-86,-158,-72,122,-7,-115,211,258,192,222,-176,-154
-86,-158,-72,122,-7,-115,212,257,191,221,-176,-154
-86,-159,-73,123,-6,-116,212,257,190,220,-177,-155
-86,-159,-73,123,-6,-116,213,257,190,219,-177,-155
-86,-160,-74,123,-6,-117,214,258,190,219,-177,-154
-86,-160,-74,123,-6,-117,214,257,190,217,-177,-155
-87,-160,-73,124,-7,-116,213,257,189,217,-178,-156
-87,-160,-73,124,-7,-116,214,257,189,216,-178,-156
-87,-160,-73,124,-7,-116,214,257,188,215,-178,-156
-87,-160,-73,124,-7,-116,214,256,187,214,-179,-156
-88,-160,-72,124,-8,-116,214,256,186,213,-179,-157
-89,-161,-72,125,-8,-116,215,257,186,213,-178,-156
-89,-161,-72,125,-8,-116,214,256,185,211,-179,-157
-90,-162,-72,126,-9,-117,214,256,185,211,-179,-156
-91,-162,-71,127,-10,-116,213,255,185,210,-179,-157
-91,-162,-71,127,-10,-116,212,254,184,209,-180,-158
-91,-162,-71,127,-10,-116,211,253,184,209,-180,-158
-91,-162,-71,127,-10,-116,210,253,184,208,-181,-158
-92,-163,-71,128,-10,-117,210,253,186,209,-180,-157
-92,-163,-71,128,-10,-117,210,253,185,208,-180,-157
-92,-163,-71,128,-10,-117,209,253,185,207,-181,-158
-93,-163,-70,128,-11,-116,209,254,184,207,-181,-158
-93,-164,-71,129,-11,-117,209,254,183,206,-182,-159
-94,-164,-70,129,-12,-117,209,254,182,206,-181,-158
"
		-95","
		-165","
		-70","
		130","
		-12","
		-117","
		209","
		254","
		181","
		205","
		-182","
		-159"
-95,-165,-70,130,-12,-117,209,254,181,205,-182,-159
-96,-165,-69,131,-13,-117,210,254,182,206,-181,-158
-96,-165,-69,131,-13,-117,210,254,182,206,-182,-158
-96,-165,-69,131,-13,-117,210,253,181,205,-182,-158
-96,-165,-69,131,-13,-117,210,253,181,205,-182,-158
-96,-165,-69,131,-13,-117,210,253,180,204,-182,-158
-96,-165,-69,131,-13,-117,211,253,179,204,-183,-159
-96,-165,-69,131,-13,-117,211,252,178,203,-183,-159
-96,-165,-69,131,-13,-117,211,252,178,202,-183,-159
-96,-165,-69,131,-13,-117,211,252,178,202,-183,-159
-96,-165,-69,131,-13,-117,211,252,178,201,-183,-159
-96,-164,-68,130,-14,-116,210,251,177,200,-184,-160
-95,-164,-69,130,-13,-116,210,251,176,200,-184,-160
-94,-163,-69,129,-12,-116,209,250,175,199,-185,-161
-94,-163,-69,129,-12,-116,208,250,175,199,-184,-160
-94,-163,-69,129,-12,-116,209,251,174,200,-183,-160
-93,-162,-69,128,-12,-115,209,251,174,200,-183,-159
-93,-162,-69,128,-12,-115,209,251,174,201,-182,-159
-93,-162,-69,128,-12,-115,210,252,174,201,-182,-159
-93,-161,-68,127,-12,-114,209,251,173,200,-183,-159
-93,-161,-68,127,-12,-114,209,251,174,200,-182,-159
-93,-160,-67,127,-13,-113,210,251,174,201,-182,-159
-92,-159,-67,126,-12,-113,209,250,172,200,-183,-159
-91,-159,-68,125,-11,-113,209,250,172,200,-182,-159
-90,-158,-68,124,-11,-113,208,250,171,200,-182,-159
-89,-158,-69,124,-10,-113,209,250,171,200,-182,-159
-89,-157,-68,123,-10,-112,209,250,171,200,-182,-159
-88,-157,-69,123,-9,-113,209,248,170,200,-182,-159
-88,-157,-69,123,-9,-113,210,248,171,200,-182,-159
-88,-157,-69,123,-9,-113,210,248,171,200,-182,-159
-88,-157,-69,123,-9,-113,211,248,172,199,-182,-159
-88,-157,-69,123,-9,-113,211,247,172,198,-183,-159
-88,-157,-69,123,-9,-113,211,247,172,198,-183,-159
-87,-157,-70,122,-8,-113,212,247,172,197,-183,-159
-87,-156,-69,122,-9,-112,212,247,170,197,-183,-159
-87,-157,-70,122,-8,-113,212,246,169,196,-184,-160
-87,-157,-70,122,-8,-113,212,246,167,196,-184,-160
-87,-157,-70,122,-8,-113,211,246,167,196,-185,-160
-88,-158,-70,123,-9,-114,212,247,168,197,-184,-160
-88,-158,-70,123,-9,-114,211,246,168,197,-185,-160
-89,-159,-70,124,-9,-114,210,246,169,196,-186,-161
-90,-159,-69,125,-10,-114,210,246,170,197,-185,-161
-90,-159,-69,125,-10,-114,210,246,170,197,-186,-161
-90,-159,-69,125,-10,-114,209,245,169,196,-187,-161
-90,-159,-69,125,-10,-114,209,244,167,195,-188,-162
-91,-160,-69,126,-11,-114,208,243,166,194,-189,-163
-91,-160,-69,126,-11,-114,208,242,165,193,-190,-163
-92,-161,-69,127,-11,-115,208,242,165,193,-190,-163
-93,-162,-69,128,-12,-115,209,242,165,193,-190,-163
-93,-163,-70,128,-11,-116,208,240,164,192,-191,-164
-93,-163,-70,128,-11,-116,207,239,164,191,-191,-165
-94,-164,-70,129,-12,-117,208,240,164,192,-191,-164
-94,-164,-70,129,-12,-117,207,239,162,191,-191,-164
-94,-164,-70,129,-12,-117,207,239,161,191,-191,-165
-95,-164,-69,130,-13,-116,206,239,159,190,-191,-165
-95,-165,-70,130,-12,-117,206,239,158,189,-192,-166
-95,-165,-70,130,-12,-117,206,239,157,188,-193,-166
-95,-165,-70,130,-12,-117,205,238,156,187,-194,-167
-96,-166,-70,131,-13,-118,206,238,156,187,-193,-167
-96,-167,-71,132,-12,-119,206,237,156,186,-194,-168
-97,-167,-70,132,-13,-118,207,238,157,187,-194,-167
-98,-167,-69,133,-14,-118,206,237,156,187,-194,-167
-98,-167,-69,133,-14,-118,206,237,155,187,-194,-167
-98,-167,-69,133,-14,-118,205,237,155,188,-193,-167
-98,-167,-69,133,-14,-118,205,237,154,188,-193,-166
-98,-168,-70,133,-14,-119,205,237,153,188,-193,-167
-98,-168,-70,133,-14,-119,205,237,153,188,-194,-167
-98,-168,-70,133,-14,-119,205,237,154,188,-194,-167
-98,-168,-70,133,-14,-119,205,237,154,188,-194,-167
-98,-168,-70,133,-14,-119,205,237,155,188,-195,-167
-98,-169,-71,134,-13,-120,205,237,156,188,-194,-166
-97,-168,-71,133,-13,-119,204,236,155,187,-195,-167
-97,-168,-71,133,-13,-119,204,236,155,187,-195,-167
-96,-168,-72,132,-12,-120,204,237,155,187,-194,-167
-96,-168,-72,132,-12,-120,204,237,154,186,-194,-167
-95,-167,-72,131,-11,-119,204,236,153,184,-195,-167
-95,-167,-72,131,-11,-119,204,236,152,184,-195,-167
-95,-167,-72,131,-11,-119,205,236,152,184,-196,-167
-95,-167,-72,131,-11,-119,205,236,151,183,-196,-167
-94,-167,-73,131,-10,-120,205,236,151,183,-196,-167
-94,-167,-73,131,-10,-120,205,237,152,184,-196,-166
-93,-166,-73,130,-10,-119,205,236,152,183,-196,-167
-93,-166,-73,130,-10,-119,205,236,152,184,-196,-167
-92,-166,-74,129,-9,-120,205,236,153,184,-195,-167
-92,-166,-74,129,-9,-120,205,237,153,184,-195,-166
-92,-166,-74,129,-9,-120,205,237,153,184,-194,-166
-91,-165,-74,128,-8,-119,204,236,152,183,-195,-167
-92,-166,-74,129,-9,-120,204,237,153,184,-194,-166
-92,-166,-74,129,-9,-120,204,237,153,184,-194,-166
-93,-166,-73,130,-10,-119,205,237,154,184,-194,-166
-92,-166,-74,129,-9,-120,205,237,154,184,-194,-166
-92,-166,-74,129,-9,-120,205,237,155,184,-194,-166
-93,-166,-73,130,-10,-119,205,236,155,184,-194,-166
-92,-165,-73,129,-9,-119,204,236,154,183,-195,-167
-92,-165,-73,129,-9,-119,204,236,154,183,-195,-167
-92,-165,-73,129,-9,-119,204,236,153,182,-195,-167
-92,-166,-74,129,-9,-120,205,237,154,182,-195,-167
-92,-166,-74,129,-9,-120,206,236,153,182,-195,-167
-92,-167,-75,130,-8,-121,206,236,153,181,-196,-167
-92,-167,-75,130,-8,-121,205,235,152,180,-197,-168
-93,-168,-75,131,-9,-121,206,235,151,181,-196,-168
-94,-168,-74,131,-10,-121,205,234,150,181,-196,-168
-94,-169,-75,132,-9,-122,205,233,150,181,-197,-168
-95,-169,-74,132,-10,-121,205,234,151,182,-196,-168
-95,-169,-74,132,-10,-121,204,234,151,182,-196,-168
-95,-170,-75,133,-10,-122,204,234,151,182,-196,-168
-95,-170,-75,133,-10,-122,204,234,151,181,-197,-169
-95,-170,-75,133,-10,-122,204,234,151,180,-198,-169
-95,-170,-75,133,-10,-122,204,234,151,180,-198,-170
-95,-170,-75,133,-10,-122,204,233,151,179,-199,-170
-95,-171,-76,133,-9,-123,203,233,151,179,-200,-171
-96,-171,-75,134,-10,-123,204,234,151,180,-199,-170
-96,-171,-75,134,-10,-123,203,234,150,179,-199,-170
-97,-171,-74,134,-11,-122,203,233,149,179,-199,-170
-97,-171,-74,134,-11,-122,203,233,148,179,-199,-171
-97,-172,-75,135,-11,-123,203,233,147,179,-199,-171
-97,-172,-75,135,-11,-123,203,232,147,178,-199,-171
-98,-172,-74,135,-12,-123,204,233,147,179,-198,-170
-98,-172,-74,135,-12,-123,204,233,147,179,-198,-171
-98,-172,-74,135,-12,-123,204,233,148,179,-198,-171
-98,-172,-74,135,-12,-123,203,233,149,179,-198,-171
-98,-172,-74,135,-12,-123,203,233,149,179,-198,-171
-97,-172,-75,135,-11,-123,202,232,148,179,-199,-172
-97,-172,-75,135,-11,-123,202,232,148,179,-198,-172
-96,-172,-76,134,-10,-124,202,232,148,179,-198,-171
-96,-172,-76,134,-10,-124,202,232,148,179,-198,-171
-97,-172,-75,135,-11,-123,203,232,148,179,-198,-171
-97,-172,-75,135,-11,-123,203,232,149,178,-198,-171
-96,-172,-76,134,-10,-124,204,232,149,178,-198,-171
-96,-172,-76,134,-10,-124,204,232,148,178,-198,-171
-96,-172,-76,134,-10,-124,204,232,148,178,-198,-171
-95,-171,-76,133,-9,-123,204,231,147,178,-198,-172
-95,-171,-76,133,-9,-123,204,232,147,178,-198,-171
-95,-171,-76,133,-9,-123,204,232,147,179,-197,-171
-95,-171,-76,133,-9,-123,204,232,147,179,-197,-170
-95,-170,-75,133,-10,-122,204,232,148,179,-197,-170
-95,-171,-76,133,-9,-123,204,232,148,179,-196,-170
-95,-171,-76,133,-9,-123,204,232,149,179,-197,-170
-94,-171,-77,133,-8,-124,204,232,148,179,-197,-170
-93,-171,-78,132,-7,-124,204,231,148,179,-197,-170
-93,-171,-78,132,-7,-124,204,231,148,179,-197,-170
-93,-171,-78,132,-7,-124,204,231,149,179,-197,-169
-93,-170,-77,132,-8,-123,203,231,148,179,-197,-170
-93,-170,-77,132,-8,-123,203,231,149,179,-197,-170
-93,-170,-77,132,-8,-123,204,231,149,180,-197,-169
-93,-169,-76,131,-8,-122,204,232,149,180,-196,-169
-93,-169,-76,131,-8,-122,204,232,148,179,-196,-169
-93,-169,-76,131,-8,-122,204,232,147,179,-196,-169
-93,-169,-76,131,-8,-122,204,232,146,178,-197,-170
-93,-170,-77,132,-8,-123,204,231,146,178,-197,-170
-93,-170,-77,132,-8,-123,203,231,147,178,-198,-170
-93,-170,-77,132,-8,-123,203,231,147,178,-198,-171
-94,-171,-77,133,-8,-124,203,232,148,179,-197,-170
-94,-171,-77,133,-8,-124,203,232,148,179,-197,-170
-95,-171,-76,133,-9,-123,203,232,148,179,-197,-170
-95,-171,-76,133,-9,-123,203,232,147,179,-197,-170
-95,-172,-77,134,-9,-124,204,232,147,179,-196,-169
-95,-172,-77,134,-9,-124,204,231,147,179,-197,-169
-95,-173,-78,134,-8,-125,204,231,147,178,-197,-170
-95,-174,-79,135,-8,-126,203,230,147,177,-198,-170
-95,-174,-79,135,-8,-126,203,230,147,177,-199,-171
-95,-175,-80,135,-7,-127,203,230,148,178,-198,-170
-95,-175,-80,135,-7,-127,203,230,148,178,-198,-170
-96,-175,-79,136,-8,-127,203,230,148,178,-197,-170
-96,-175,-79,136,-8,-127,203,231,148,178,-197,-170
-96,-175,-79,136,-8,-127,203,231,148,178,-197,-170
-96,-175,-79,136,-8,-127,204,231,147,178,-197,-170
-97,-175,-78,136,-9,-126,204,231,147,178,-197,-170
-97,-175,-78,136,-9,-126,205,231,147,177,-197,-171
-97,-176,-79,137,-9,-127,205,231,148,177,-197,-170
-97,-176,-79,137,-9,-127,205,231,149,177,-197,-170
-97,-175,-78,136,-9,-126,204,230,148,176,-197,-171
-97,-175,-78,136,-9,-126,204,230,147,176,-197,-171
-97,-175,-78,136,-9,-126,203,230,147,177,-197,-171
-96,-175,-79,136,-8,-127,204,230,147,177,-197,-171
-96,-174,-78,135,-9,-126,204,231,147,177,-196,-171
-96,-174,-78,135,-9,-126,204,231,147,178,-197,-171
-96,-174,-78,135,-9,-126,204,231,147,177,-197,-171
-96,-174,-78,135,-9,-126,205,230,148,177,-197,-171
-96,-174,-78,135,-9,-126,205,230,148,177,-197,-171
-96,-173,-77,135,-9,-125,203,229,147,176,-198,-172
-96,-173,-77,135,-9,-125,203,228,147,176,-198,-172
-95,-172,-77,134,-9,-124,203,229,147,177,-198,-171
-95,-172,-77,134,-9,-124,203,229,148,177,-197,-171
-94,-172,-78,133,-8,-125,202,229,147,177,-198,-171
-94,-172,-78,133,-8,-125,202,229,147,177,-198,-171
-94,-173,-79,134,-7,-126,203,230,148,179,-197,-170
-94,-173,-79,134,-7,-126,204,230,149,179,-197,-170
-95,-173,-78,134,-8,-125,204,230,148,179,-197,-170
-95,-173,-78,134,-8,-125,204,230,148,178,-197,-170
-95,-173,-78,134,-8,-125,204,230,148,178,-197,-170
-95,-172,-77,134,-9,-124,205,230,148,177,-197,-170
-95,-172,-77,134,-9,-124,205,230,147,177,-197,-169
-94,-172,-78,133,-8,-125,204,230,146,176,-198,-170
-94,-172,-78,133,-8,-125,204,230,145,176,-198,-170
-93,-172,-79,133,-7,-125,204,230,145,176,-198,-170
-93,-172,-79,133,-7,-125,204,229,146,176,-198,-170
-94,-172,-78,133,-8,-125,204,229,146,176,-198,-170
-94,-173,-79,134,-7,-126,204,230,148,177,-197,-170
-94,-172,-78,133,-8,-125,203,229,147,176,-198,-171
-94,-173,-79,134,-7,-126,204,229,148,177,-197,-170
-95,-173,-78,134,-8,-125,203,229,147,177,-197,-170
-94,-172,-78,133,-8,-125,202,228,146,176,-197,-171
-94,-172,-78,133,-8,-125,202,228,146,176,-197,-171
-95,-172,-77,134,-9,-124,202,229,147,177,-197,-170
-95,-172,-77,134,-9,-124,202,228,147,176,-197,-171
-95,-172,-77,134,-9,-124,203,228,147,176,-198,-171
-96,-172,-76,134,-10,-124,203,228,147,175,-198,-172
-96,-172,-76,134,-10,-124,202,228,146,175,-199,-172
-97,-173,-76,135,-10,-124,203,228,146,176,-198,-171
-97,-173,-76,135,-10,-124,203,228,145,175,-199,-172
-97,-174,-77,136,-10,-125,202,228,145,175,-199,-172
-97,-174,-77,136,-10,-125,202,228,144,175,-199,-172
-97,-174,-77,136,-10,-125,202,228,144,175,-199,-172
-97,-174,-77,136,-10,-125,202,228,144,175,-199,-172
-97,-174,-77,136,-10,-125,202,228,144,175,-199,-172
-97,-173,-76,135,-10,-124,203,228,145,175,-199,-172
-97,-173,-76,135,-10,-124,203,228,145,174,-199,-172
-97,-174,-77,136,-10,-125,204,228,145,174,-199,-172
-97,-174,-77,136,-10,-125,203,227,144,173,-200,-173
-97,-174,-77,136,-10,-125,203,226,143,173,-201,-173
-97,-174,-77,136,-10,-125,202,226,143,173,-200,-173
-97,-174,-77,136,-10,-125,202,227,144,174,-200,-173
-97,-173,-76,135,-10,-124,202,227,145,174,-200,-172
-97,-173,-76,135,-10,-124,201,228,145,174,-200,-172
-97,-172,-75,135,-11,-123,201,227,144,174,-201,-173
-96,-172,-76,134,-10,-124,201,227,144,174,-200,-173
-96,-172,-76,134,-10,-124,201,227,145,174,-201,-173
-96,-172,-76,134,-10,-124,201,226,144,174,-201,-173
-96,-171,-75,134,-10,-123,202,226,144,174,-201,-174
-95,-171,-76,133,-9,-123,201,225,144,173,-202,-175
-95,-170,-75,133,-10,-122,201,225,145,173,-202,-174
-96,-170,-74,133,-11,-122,201,226,145,173,-201,-174
-96,-170,-74,133,-11,-122,201,226,145,173,-201,-173
-95,-170,-75,133,-10,-122,202,226,145,173,-200,-173
-96,-170,-74,133,-11,-122,201,227,145,173,-200,-173
-96,-169,-73,133,-11,-121,201,227,145,173,-200,-172
-95,-169,-74,132,-10,-121,202,227,145,173,-199,-172
-95,-169,-74,132,-10,-121,202,227,144,173,-199,-172
-95,-169,-74,132,-10,-121,201,227,144,173,-199,-172
-94,-169,-75,132,-9,-122,200,226,143,172,-200,-173
-94,-168,-74,131,-10,-121,201,226,143,172,-200,-173
-94,-168,-74,131,-10,-121,201,226,144,173,-200,-172
-94,-168,-74,131,-10,-121,201,226,144,173,-200,-172
-94,-168,-74,131,-10,-121,201,226,144,173,-200,-172
-94,-167,-73,131,-10,-120,201,226,144,173,-200,-172
-94,-167,-73,131,-10,-120,201,226,145,173,-200,-172
-94,-168,-74,131,-10,-121,201,226,145,173,-200,-173
-95,-168,-73,132,-11,-120,201,226,145,173,-200,-173
-95,-168,-73,132,-11,-120,201,225,144,173,-201,-174
-95,-168,-73,132,-11,-120,201,225,144,173,-201,-174
-95,-168,-73,132,-11,-120,201,226,144,172,-201,-174
-95,-167,-72,131,-11,-119,201,226,144,173,-201,-174
-95,-167,-72,131,-11,-119,201,226,144,173,-201,-174
-95,-167,-72,131,-11,-119,201,226,144,172,-201,-174
-95,-168,-73,132,-11,-120,200,226,144,172,-201,-174
-95,-168,-73,132,-11,-120,200,225,144,171,-202,-174
-95,-168,-73,132,-11,-120,200,225,144,171,-202,-174
-96,-169,-73,133,-11,-121,201,225,145,172,-201,-173
-96,-169,-73,133,-11,-121,201,225,144,172,-201,-173
-96,-169,-73,133,-11,-121,201,225,144,172,-201,-174
-97,-169,-72,133,-12,-120,201,225,143,172,-201,-173
-97,-169,-72,133,-12,-120,201,225,143,172,-201,-173
-97,-169,-72,133,-12,-120,201,224,143,172,-201,-174
-97,-170,-73,134,-12,-121,202,225,143,173,-200,-172
-97,-170,-73,134,-12,-121,202,225,143,173,-200,-172
-96,-170,-74,133,-11,-122,201,225,143,171,-201,-173
-96,-170,-74,133,-11,-122,201,225,143,171,-202,-174
-97,-171,-74,134,-11,-122,202,225,144,171,-201,-173
-97,-171,-74,134,-11,-122,201,225,144,171,-202,-173
-97,-171,-74,134,-11,-122,200,225,144,171,-202,-174
-97,-170,-73,134,-12,-121,200,225,144,170,-202,-174
-97,-170,-73,134,-12,-121,200,225,143,170,-202,-174
-97,-169,-72,133,-12,-120,199,224,141,170,-202,-175
-97,-169,-72,133,-12,-120,199,224,141,170,-202,-175
-97,-169,-72,133,-12,-120,199,224,141,170,-202,-175
-97,-169,-72,133,-12,-120,200,224,141,170,-202,-175
-98,-169,-71,134,-13,-120,201,224,142,171,-201,-174
-98,-170,-72,134,-13,-121,201,224,142,171,-201,-174
-98,-170,-72,134,-13,-121,201,224,143,172,-201,-174
-98,-170,-72,134,-13,-121,201,224,143,172,-201,-175
-98,-170,-72,134,-13,-121,200,224,143,172,-201,-174
-98,-170,-72,134,-13,-121,201,224,143,173,-200,-174
-98,-169,-71,134,-13,-120,200,225,143,173,-200,-174
-98,-169,-71,134,-13,-120,200,224,142,173,-200,-174
-99,-169,-70,134,-14,-119,200,224,142,173,-200,-175
-99,-169,-70,134,-14,-119,201,224,142,172,-200,-175
-98,-169,-71,134,-13,-120,201,225,142,172,-200,-175
-98,-169,-71,134,-13,-120,201,224,143,172,-201,-175
-97,-169,-72,133,-12,-120,200,223,143,171,-202,-176
-97,-169,-72,133,-12,-120,200,223,143,170,-202,-176
-97,-169,-72,133,-12,-120,200,223,143,170,-202,-176
-96,-169,-73,133,-11,-121,200,223,142,171,-201,-176
-96,-168,-72,132,-12,-120,199,223,141,171,-201,-176
-96,-168,-72,132,-12,-120,200,223,142,171,-201,-175
-96,-168,-72,132,-12,-120,200,223,142,171,-201,-175
-96,-168,-72,132,-12,-120,200,224,143,171,-201,-175
-96,-168,-72,132,-12,-120,201,224,143,171,-201,-175
-96,-169,-73,133,-11,-121,201,224,144,171,-201,-175
"
		-96","
		-169","
		-73","
		133","
		-11","
		-121","
		201","
		224","
		145","
		171","
		-201","
		-176"
-97,-169,-72,133,-12,-120,201,224,145,171,-201,-176
-97,-169,-72,133,-12,-120,201,224,145,171,-201,-175
-97,-169,-72,133,-12,-120,201,224,144,171,-201,-175
-97,-169,-72,133,-12,-120,201,224,143,171,-201,-175
-97,-169,-72,133,-12,-120,200,223,142,171,-201,-175
-97,-169,-72,133,-12,-120,200,223,142,172,-201,-175
-96,-169,-73,133,-11,-121,200,222,142,172,-201,-175
-97,-169,-72,133,-12,-120,200,222,142,171,-201,-175
-97,-169,-72,133,-12,-120,200,222,142,171,-202,-176
-97,-168,-71,133,-13,-119,200,222,142,171,-202,-176
-97,-168,-71,133,-13,-119,200,223,143,171,-203,-176
-96,-168,-72,132,-12,-120,200,223,143,171,-202,-176
-96,-168,-72,132,-12,-120,200,223,143,171,-202,-176
-96,-167,-71,132,-12,-119,199,222,142,170,-203,-177
-96,-167,-71,132,-12,-119,200,222,142,170,-203,-177
-96,-167,-71,132,-12,-119,200,222,143,170,-203,-177
-96,-168,-72,132,-12,-120,201,223,144,170,-202,-176
-97,-168,-71,133,-13,-119,201,223,144,170,-202,-177
-97,-169,-72,133,-12,-120,200,222,144,169,-203,-177
-98,-169,-71,134,-13,-120,201,223,145,169,-202,-177
-98,-169,-71,134,-13,-120,200,223,144,169,-202,-177
-98,-169,-71,134,-13,-120,200,222,143,168,-202,-177
-99,-170,-71,135,-14,-120,200,222,142,168,-202,-177
-99,-169,-70,134,-14,-119,200,222,142,168,-202,-177
-98,-169,-71,134,-13,-120,199,222,141,168,-202,-177
-98,-169,-71,134,-13,-120,200,222,141,169,-202,-177
-98,-169,-71,134,-13,-120,200,222,141,170,-202,-177
-98,-169,-71,134,-13,-120,200,222,141,170,-202,-178
-98,-169,-71,134,-13,-120,200,223,141,170,-202,-178
-98,-169,-71,134,-13,-120,201,222,142,171,-202,-178
-98,-169,-71,134,-13,-120,201,222,142,170,-203,-178
-98,-168,-70,133,-14,-119,200,221,142,169,-203,-179
-98,-167,-69,133,-14,-118,200,221,143,170,-203,-179
-98,-167,-69,133,-14,-118,200,221,143,170,-203,-178
-98,-167,-69,133,-14,-118,200,221,142,169,-202,-178
-98,-166,-68,132,-15,-117,200,222,142,169,-202,-178
-98,-166,-68,132,-15,-117,201,222,142,169,-202,-178
-98,-167,-69,133,-14,-118,201,222,142,169,-202,-178
-98,-167,-69,133,-14,-118,201,221,143,169,-202,-178
-97,-167,-70,132,-13,-118,201,221,144,169,-202,-178
-97,-167,-70,132,-13,-118,201,221,144,169,-202,-178
-97,-167,-70,132,-13,-118,201,221,144,169,-202,-178
-97,-167,-70,132,-13,-118,201,222,144,170,-202,-178
-97,-166,-69,132,-14,-117,200,221,142,169,-202,-178
-97,-166,-69,132,-14,-117,200,221,142,169,-202,-178
-97,-166,-69,132,-14,-117,200,221,141,169,-202,-178
-97,-165,-68,131,-14,-116,200,221,140,169,-203,-178
-96,-165,-69,131,-13,-117,200,221,141,169,-203,-178
-96,-165,-69,131,-13,-117,200,220,141,169,-203,-178
-97,-165,-68,131,-14,-116,200,220,142,169,-203,-178
-97,-165,-68,131,-14,-116,200,220,142,169,-203,-179
-97,-164,-67,131,-15,-115,199,220,142,170,-203,-179
-97,-164,-67,131,-15,-115,199,220,142,170,-203,-179
-98,-164,-66,131,-16,-115,199,221,142,170,-203,-178
-98,-164,-66,131,-16,-115,199,221,142,170,-203,-178
-97,-164,-67,131,-15,-115,199,221,142,170,-203,-179
-97,-164,-67,131,-15,-115,199,221,142,170,-203,-179
-97,-164,-67,131,-15,-115,199,220,143,170,-203,-179
-96,-164,-68,130,-14,-116,198,219,142,169,-205,-180
-97,-164,-67,131,-15,-115,199,219,143,169,-204,-179
-97,-163,-66,130,-15,-114,198,218,142,168,-205,-181
-97,-163,-66,130,-15,-114,198,218,142,168,-205,-180
-97,-163,-66,130,-15,-114,198,219,142,168,-205,-180
-97,-163,-66,130,-15,-114,198,219,141,167,-205,-180
-98,-163,-65,131,-16,-114,199,220,141,167,-204,-179
-98,-163,-65,131,-16,-114,200,220,140,167,-204,-179
-98,-164,-66,131,-16,-115,200,220,139,167,-204,-179
-98,-164,-66,131,-16,-115,199,220,138,167,-205,-180
-98,-165,-67,132,-15,-116,199,220,138,168,-205,-180
-98,-165,-67,132,-15,-116,199,220,138,169,-205,-180
-98,-165,-67,132,-15,-116,199,220,139,170,-204,-180
-98,-165,-67,132,-15,-116,198,219,139,171,-204,-179
-97,-165,-68,131,-14,-116,198,219,140,171,-204,-179
-97,-165,-68,131,-14,-116,198,219,141,171,-203,-179
-97,-165,-68,131,-14,-116,198,219,141,171,-203,-179
-97,-165,-68,131,-14,-116,198,219,141,171,-203,-179
-97,-165,-68,131,-14,-116,198,219,142,171,-203,-179
-97,-164,-67,131,-15,-115,198,219,142,170,-204,-179
-97,-164,-67,131,-15,-115,198,219,142,170,-204,-179
-98,-164,-66,131,-16,-115,199,218,142,169,-205,-180
-98,-164,-66,131,-16,-115,199,218,142,169,-205,-180
-98,-164,-66,131,-16,-115,199,218,141,169,-205,-180
-97,-164,-67,131,-15,-115,199,218,141,169,-205,-180
-97,-164,-67,131,-15,-115,200,218,140,169,-205,-180
-97,-163,-66,130,-15,-114,199,217,139,169,-206,-180
-97,-162,-65,130,-16,-113,199,218,139,169,-205,-180
-97,-162,-65,130,-16,-113,199,218,140,169,-205,-179
-97,-161,-64,129,-16,-112,200,219,141,169,-205,-179
-97,-161,-64,129,-16,-112,200,219,142,169,-205,-179
-97,-160,-63,129,-17,-111,199,218,141,168,-206,-180
-96,-160,-64,128,-16,-112,199,218,141,168,-206,-181
-96,-159,-63,128,-16,-111,199,218,141,168,-206,-181
-96,-159,-63,128,-16,-111,199,218,141,169,-206,-181
-96,-159,-63,128,-16,-111,199,218,140,169,-207,-181
-96,-159,-63,128,-16,-111,199,218,140,169,-207,-181
-96,-159,-63,128,-16,-111,200,218,140,169,-207,-181
-96,-159,-63,128,-16,-111,200,218,140,169,-207,-181
-96,-159,-63,128,-16,-111,200,218,139,169,-207,-181
-96,-159,-63,128,-16,-111,200,217,139,169,-207,-181
-95,-160,-65,128,-15,-112,200,217,139,169,-207,-180
-95,-160,-65,128,-15,-112,200,217,140,169,-207,-180
-95,-160,-65,128,-15,-112,200,218,141,169,-206,-180
-95,-161,-66,128,-14,-113,199,218,142,169,-206,-179
-95,-161,-66,128,-14,-113,199,218,142,169,-205,-179
-95,-161,-66,128,-14,-113,199,218,142,169,-205,-179
-95,-161,-66,128,-14,-113,199,218,142,169,-205,-179
-95,-160,-65,128,-15,-112,199,219,142,170,-205,-179
-95,-160,-65,128,-15,-112,199,219,141,170,-204,-179
-95,-160,-65,128,-15,-112,199,219,141,169,-204,-179
-95,-159,-64,127,-15,-111,198,218,140,169,-206,-180
-94,-159,-65,127,-14,-112,198,218,140,169,-206,-181
-95,-159,-64,127,-15,-111,198,218,140,169,-206,-180
-95,-159,-64,127,-15,-111,198,217,141,168,-206,-180
-95,-159,-64,127,-15,-111,199,217,141,168,-207,-181
-95,-159,-64,127,-15,-111,199,217,141,168,-207,-181
-95,-159,-64,127,-15,-111,199,217,141,168,-207,-180
-96,-159,-63,128,-16,-111,200,218,141,169,-206,-179
-96,-159,-63,128,-16,-111,200,218,140,169,-206,-180
-95,-160,-65,128,-15,-112,199,218,139,169,-206,-180
-95,-160,-65,128,-15,-112,199,218,138,170,-206,-180
-95,-160,-65,128,-15,-112,199,217,138,170,-206,-180
-95,-160,-65,128,-15,-112,198,217,139,170,-206,-180
-95,-160,-65,128,-15,-112,198,217,140,171,-205,-180
-95,-160,-65,128,-15,-112,198,218,140,171,-205,-180
-95,-160,-65,128,-15,-112,198,218,141,171,-205,-180
-95,-159,-64,127,-15,-111,197,217,141,170,-206,-181
-95,-159,-64,127,-15,-111,198,217,141,170,-206,-181
-95,-159,-64,127,-15,-111,198,217,141,169,-206,-181
-96,-159,-63,128,-16,-111,199,218,142,170,-206,-180
-96,-159,-63,128,-16,-111,199,218,142,170,-206,-180
-96,-159,-63,128,-16,-111,199,218,142,170,-206,-181
-96,-159,-63,128,-16,-111,199,218,142,170,-206,-181
-96,-159,-63,128,-16,-111,198,217,142,170,-206,-181
-96,-159,-63,128,-16,-111,198,217,141,170,-206,-182
-96,-159,-63,128,-16,-111,198,217,140,169,-206,-182
-96,-159,-63,128,-16,-111,197,217,139,169,-206,-182
-96,-159,-63,128,-16,-111,198,217,138,168,-206,-181
-96,-159,-63,128,-16,-111,198,216,138,168,-206,-181
-96,-159,-63,128,-16,-111,198,216,138,168,-206,-181
-96,-159,-63,128,-16,-111,199,216,139,169,-206,-181
-96,-159,-63,128,-16,-111,199,216,140,169,-206,-181
-96,-158,-62,127,-17,-110,198,215,140,169,-207,-182
-95,-158,-63,127,-16,-110,198,216,140,169,-207,-182
-96,-158,-62,127,-17,-110,199,216,140,169,-207,-181
-96,-157,-61,127,-17,-109,199,216,139,169,-207,-181
-96,-157,-61,127,-17,-109,198,216,140,169,-207,-181
-96,-157,-61,127,-17,-109,199,217,140,168,-207,-181
-96,-157,-61,127,-17,-109,199,217,140,168,-207,-181
-96,-157,-61,127,-17,-109,198,217,140,168,-207,-181
-96,-157,-61,127,-17,-109,198,217,140,168,-207,-182
-96,-157,-61,127,-17,-109,198,217,140,168,-207,-182
-96,-157,-61,127,-17,-109,197,217,140,168,-207,-181
-96,-157,-61,127,-17,-109,197,217,140,168,-207,-181
-96,-157,-61,127,-17,-109,197,217,140,168,-207,-181
-96,-157,-61,127,-17,-109,197,217,140,168,-207,-181
-95,-157,-62,126,-16,-109,197,216,140,169,-207,-180
-95,-158,-63,127,-16,-110,197,216,140,169,-207,-181
-95,-158,-63,127,-16,-110,197,216,140,169,-207,-181
-95,-158,-63,127,-16,-110,198,216,140,169,-207,-181
-94,-158,-64,126,-15,-111,198,216,140,169,-207,-181
-94,-158,-64,126,-15,-111,198,216,140,169,-206,-180
-94,-158,-64,126,-15,-111,199,216,140,169,-206,-180
-94,-157,-63,126,-15,-110,198,216,140,169,-207,-181
-94,-157,-63,126,-15,-110,198,216,140,170,-206,-181
-94,-157,-63,126,-15,-110,199,217,140,170,-206,-181
-94,-156,-62,125,-16,-109,199,217,140,171,-206,-180
-94,-156,-62,125,-16,-109,199,218,141,171,-206,-180
-93,-156,-63,125,-15,-109,199,218,142,171,-205,-180
-93,-155,-62,124,-15,-108,198,217,141,170,-206,-180
-93,-154,-61,124,-16,-107,199,218,142,170,-206,-180
-92,-153,-61,123,-15,-107,198,218,142,169,-206,-180
-92,-152,-60,122,-16,-106,199,219,144,170,-205,-179
-91,-150,-59,121,-16,-104,199,219,145,170,-205,-179
-91,-149,-58,120,-16,-103,201,220,146,171,-204,-177
-91,-147,-56,119,-17,-101,201,220,146,172,-203,-177
-91,-146,-55,119,-18,-100,202,221,147,174,-202,-176
-91,-145,-54,118,-18,-99,202,221,147,174,-202,-176
-91,-144,-53,118,-19,-98,203,222,147,175,-202,-176
-91,-144,-53,118,-19,-98,204,223,148,176,-201,-175
-91,-143,-52,117,-19,-97,204,224,149,177,-200,-175
-91,-142,-51,117,-20,-96,204,224,149,176,-201,-175
-91,-142,-51,117,-20,-96,205,224,149,176,-201,-175
-92,-142,-50,117,-21,-96,206,226,151,177,-200,-175
-93,-141,-48,117,-22,-94,207,226,151,177,-201,-175
-93,-141,-48,117,-22,-94,208,226,151,177,-201,-175
-93,-141,-48,117,-22,-94,208,226,150,176,-201,-176
-93,-142,-49,118,-22,-95,208,225,149,175,-202,-176
-93,-142,-49,118,-22,-95,208,225,148,175,-202,-176
-93,-141,-48,117,-22,-94,208,225,149,176,-201,-175
-92,-141,-49,117,-21,-95,207,224,148,175,-201,-175
-91,-140,-49,116,-21,-94,206,223,149,176,-200,-174
-91,-140,-49,116,-21,-94,205,223,150,177,-199,-173
-90,-139,-49,115,-20,-94,203,222,150,177,-199,-173
-90,-138,-48,114,-21,-93,203,223,151,178,-198,-172
-89,-138,-49,114,-20,-93,201,222,150,177,-199,-173
-89,-138,-49,114,-20,-93,200,221,150,177,-199,-172
-89,-139,-50,114,-19,-94,200,220,151,177,-198,-172
-89,-139,-50,114,-19,-94,199,219,150,176,-198,-172
-89,-139,-50,114,-19,-94,197,216,149,175,-199,-173
-89,-140,-51,115,-19,-95,196,214,149,174,-199,-173
-89,-140,-51,115,-19,-95,194,212,148,173,-200,-174
-88,-141,-53,115,-17,-97,193,212,148,173,-200,-174
-88,-141,-53,115,-17,-97,192,212,147,173,-200,-174
-87,-142,-55,115,-16,-98,192,213,146,173,-200,-175
-87,-143,-56,115,-15,-99,191,213,145,173,-200,-175
-86,-144,-58,115,-14,-101,191,213,144,174,-200,-175
-86,-145,-59,116,-13,-102,191,214,144,175,-199,-174
-87,-146,-59,117,-14,-102,191,214,144,176,-199,-174
-88,-146,-58,117,-15,-102,193,215,144,177,-198,-173
-88,-147,-59,118,-14,-103,193,215,144,177,-199,-173
-88,-148,-60,118,-14,-104,194,215,145,177,-199,-174
-90,-149,-59,120,-15,-104,195,216,145,177,-199,-174
-90,-150,-60,120,-15,-105,195,217,145,176,-199,-174
-90,-152,-62,121,-14,-107,194,215,144,174,-201,-176
-90,-153,-63,122,-13,-108,194,215,143,172,-202,-176
-91,-155,-64,123,-13,-109,195,214,142,170,-203,-178
-92,-156,-64,124,-14,-110,194,213,140,168,-206,-180
-93,-158,-65,126,-14,-111,195,212,138,166,-207,-181
-94,-159,-65,127,-14,-112,195,212,136,165,-208,-182
-95,-160,-65,128,-15,-112,196,213,136,165,-209,-182
-95,-160,-65,128,-15,-112,196,213,135,165,-209,-183
-95,-160,-65,128,-15,-112,196,213,135,165,-210,-183
-95,-160,-65,128,-15,-112,196,213,136,166,-209,-183
-95,-159,-64,127,-15,-111,195,213,136,166,-210,-183
-94,-158,-64,126,-15,-111,195,213,138,167,-209,-182
-94,-158,-64,126,-15,-111,196,213,140,168,-208,-181
-93,-157,-64,125,-14,-110,195,213,140,168,-208,-181
-93,-157,-64,125,-14,-110,195,213,140,168,-207,-181
-93,-157,-64,125,-14,-110,195,213,139,169,-207,-180
-92,-157,-65,125,-13,-111,195,213,139,169,-207,-180
-92,-157,-65,125,-13,-111,195,213,139,168,-207,-180
-92,-157,-65,125,-13,-111,195,213,139,168,-207,-180
-93,-157,-64,125,-14,-110,194,213,139,168,-207,-181
-93,-157,-64,125,-14,-110,194,213,138,167,-207,-181
-92,-157,-65,125,-13,-111,194,213,138,167,-207,-181
-93,-156,-63,125,-15,-109,194,213,139,167,-207,-181
-93,-156,-63,125,-15,-109,194,213,139,168,-207,-180
-93,-156,-63,125,-15,-109,195,213,139,168,-207,-180
-93,-156,-63,125,-15,-109,195,213,139,168,-207,-180
-94,-157,-63,126,-15,-110,195,213,139,168,-207,-180
-94,-157,-63,126,-15,-110,195,213,140,168,-207,-180
-94,-156,-62,125,-16,-109,195,213,140,168,-207,-181
-94,-156,-62,125,-16,-109,194,212,139,167,-207,-181
-95,-156,-61,126,-17,-108,194,212,139,166,-207,-181
-95,-156,-61,126,-17,-108,193,212,139,166,-208,-181
-94,-156,-62,125,-16,-109,193,212,139,166,-208,-182
-94,-156,-62,125,-16,-109,193,213,139,166,-208,-182
-94,-156,-62,125,-16,-109,193,213,140,167,-208,-181
-94,-156,-62,125,-16,-109,194,213,140,167,-208,-181
-94,-156,-62,125,-16,-109,194,213,140,168,-207,-181
-94,-155,-61,125,-16,-108,194,212,140,168,-207,-181
-93,-155,-62,124,-15,-108,193,211,139,166,-209,-182
-93,-155,-62,124,-15,-108,193,211,138,166,-209,-182
-93,-155,-62,124,-15,-108,193,211,138,166,-209,-183
-93,-155,-62,124,-15,-108,193,211,138,166,-209,-183
-93,-154,-61,124,-16,-107,194,212,138,167,-209,-182
-93,-153,-60,123,-16,-106,194,212,138,167,-209,-182
-93,-152,-59,123,-17,-105,193,211,137,167,-209,-183
-93,-152,-59,123,-17,-105,193,211,138,167,-209,-183
-94,-151,-57,123,-18,-104,193,212,138,168,-210,-183
-94,-151,-57,123,-18,-104,194,213,138,168,-210,-183
-94,-151,-57,123,-18,-104,194,213,138,167,-210,-183
-95,-151,-56,123,-19,-103,197,216,140,168,-210,-183
-96,-152,-56,124,-20,-104,199,219,142,167,-212,-184
-97,-154,-57,126,-20,-105,204,225,145,166,-215,-186
-98,-158,-60,128,-19,-109,211,236,151,165,-218,-188
-98,-162,-64,130,-17,-113,219,247,156,163,-222,-193
-97,-166,-69,132,-14,-117,227,260,164,161,-228,-198
-97,-170,-73,134,-12,-121,236,276,173,162,-231,-201
-95,-173,-78,134,-8,-125,243,289,181,163,-234,-205
-93,-173,-80,133,-6,-126,248,300,188,165,-235,-207
-91,-170,-79,131,-6,-124,251,310,197,170,-232,-204
-87,-163,-76,125,-5,-119,250,316,207,179,-227,-200
-82,-153,-71,118,-5,-112,247,321,222,193,-216,-192
-75,-140,-65,108,-5,-102,242,326,240,213,-200,-180
-67,-123,-56,95,-5,-89,236,331,266,239,-180,-164
-58,-103,-45,81,-6,-74,228,334,297,272,-154,-145
-49,-78,-29,64,-10,-53,219,331,328,312,-123,-122
-41,-49,-8,45,-16,-28,208,319,354,354,-89,-96
-35,-18,17,27,-26,0,196,296,369,397,-53,-69
-30,14,44,8,-37,29,182,263,374,443,-13,-40
-26,46,72,-10,-49,59,165,218,370,495,31,-8
-22,74,96,-26,-59,85,145,165,358,551,75,22
-19,97,116,-39,-67,107,125,110,344,610,118,51
-16,111,127,-47,-71,119,107,61,325,665,157,76
-17,114,131,-48,-74,123,93,22,296,704,185,93
-21,106,127,-42,-74,117,86,-4,258,719,199,100
-29,91,120,-31,-74,106,85,-17,209,706,196,98
-40,70,110,-15,-75,90,89,-19,152,659,175,84
-53,45,98,4,-75,72,96,-12,91,581,136,60
-67,17,84,25,-75,51,103,1,33,484,86,32
-77,-9,68,43,-72,30,105,12,-12,383,33,0
-86,-32,54,59,-70,11,105,24,-40,292,-19,-30
-93,-55,38,74,-65,-8,106,35,-52,219,-68,-59
-98,-78,20,88,-59,-29,106,46,-54,164,-111,-88
-102,-99,3,101,-52,-48,110,57,-49,130,-144,-112
-105,-116,-11,111,-47,-63,114,67,-40,113,-170,-132
-108,-130,-22,119,-43,-76,124,77,-26,109,-188,-148
-110,-142,-32,126,-39,-87,133,87,-13,110,-201,-161
"
		-112","
		-151","
		-39","
		132","
		-36","
		-95","
		140","
		95","
		-2","
		110","
		-211","
		-172"
-112,-158,-46,135,-33,-102,147,103,10,112,-215,-178
-112,-163,-51,138,-30,-107,152,111,22,115,-219,-182
-111,-167,-56,139,-27,-111,158,121,37,120,-220,-185
-109,-168,-59,139,-25,-113,162,133,54,126,-219,-186
-107,-167,-60,137,-23,-113,166,145,71,134,-216,-185
-103,-164,-61,134,-21,-112,170,157,88,141,-213,-184
-101,-159,-58,130,-21,-108,174,167,103,147,-211,-182
-98,-154,-56,126,-21,-105,179,177,117,154,-206,-179
-95,-149,-54,122,-20,-101,181,186,128,160,-204,-176
-94,-145,-51,120,-21,-98,185,193,136,165,-201,-175
-93,-143,-50,118,-21,-96,189,200,142,168,-200,-174
-92,-142,-50,117,-21,-96,192,206,147,171,-199,-173
-92,-141,-49,117,-21,-95,194,210,149,172,-199,-174
-92,-142,-50,117,-21,-96,197,215,151,174,-199,-174
-92,-143,-51,118,-20,-97,198,216,152,173,-200,-175
-92,-143,-51,118,-20,-97,198,217,153,173,-201,-176
-92,-144,-52,118,-20,-98,198,218,154,173,-202,-177
-92,-144,-52,118,-20,-98,197,218,155,173,-202,-178
-91,-144,-53,118,-19,-98,196,219,157,173,-202,-178
-91,-143,-52,117,-19,-97,195,220,157,174,-202,-177
-91,-143,-52,117,-19,-97,195,221,157,173,-202,-177
-91,-143,-52,117,-19,-97,195,221,157,173,-202,-177
-91,-143,-52,117,-19,-97,196,222,157,173,-203,-177
-91,-144,-53,118,-19,-98,197,222,158,173,-204,-178
-91,-144,-53,118,-19,-98,197,223,159,173,-204,-178
-91,-144,-53,118,-19,-98,198,223,160,174,-205,-178
-91,-143,-52,117,-19,-97,199,223,161,175,-205,-178
-91,-143,-52,117,-19,-97,199,223,161,175,-205,-178
-91,-143,-52,117,-19,-97,200,224,162,176,-205,-177
-91,-142,-51,117,-20,-96,199,223,160,176,-205,-178
-91,-142,-51,117,-20,-96,200,224,160,177,-204,-176
-91,-142,-51,117,-20,-96,201,224,160,177,-204,-176
-90,-142,-52,116,-19,-97,201,225,160,177,-204,-175
-90,-142,-52,116,-19,-97,202,225,160,177,-204,-175
-90,-142,-52,116,-19,-97,203,226,161,177,-204,-175
-90,-142,-52,116,-19,-97,204,226,162,177,-204,-176
-89,-142,-53,116,-18,-97,204,226,163,178,-204,-176
-90,-142,-52,116,-19,-97,204,226,164,178,-204,-175
-89,-141,-52,115,-18,-96,203,225,164,178,-204,-176
-89,-140,-51,115,-19,-95,202,226,164,179,-202,-175
-88,-140,-52,114,-18,-96,202,227,164,180,-201,-174
-88,-140,-52,114,-18,-96,201,227,165,181,-200,-173
-88,-140,-52,114,-18,-96,202,228,166,181,-199,-173
-87,-139,-52,113,-17,-95,201,228,166,181,-200,-174
-87,-139,-52,113,-17,-95,202,229,168,181,-200,-174
-87,-139,-52,113,-17,-95,203,229,169,182,-199,-174
-87,-139,-52,113,-17,-95,203,229,170,182,-199,-174
-86,-138,-52,112,-17,-95,203,228,171,182,-199,-175
-86,-137,-51,112,-17,-94,203,229,173,183,-198,-174
-85,-137,-52,111,-16,-94,203,229,175,184,-197,-173
-85,-136,-51,111,-17,-93,202,229,176,184,-197,-173
-85,-136,-51,111,-17,-93,202,230,178,184,-196,-172
-84,-136,-52,110,-16,-94,202,231,181,185,-196,-172
-84,-135,-51,110,-16,-93,202,232,183,185,-195,-172
-84,-135,-51,110,-16,-93,202,232,184,186,-196,-172
-84,-135,-51,110,-16,-93,202,232,184,186,-196,-172
-84,-135,-51,110,-16,-93,202,233,185,187,-195,-172
-84,-134,-50,109,-17,-92,201,232,184,188,-196,-172
-84,-134,-50,109,-17,-92,201,232,185,189,-195,-172
-84,-133,-49,109,-17,-91,201,233,186,191,-195,-171
-83,-132,-49,108,-17,-90,199,232,185,191,-195,-171
-82,-132,-50,107,-16,-91,200,233,186,192,-194,-170
-82,-132,-50,107,-16,-91,200,233,187,192,-194,-169
-82,-132,-50,107,-16,-91,200,234,187,192,-194,-169
-82,-132,-50,107,-16,-91,200,233,187,193,-195,-169
-82,-132,-50,107,-16,-91,199,233,188,193,-195,-169
-82,-131,-49,107,-16,-90,199,234,189,194,-195,-169
-82,-131,-49,107,-16,-90,199,234,190,195,-194,-168
-82,-130,-48,106,-17,-89,197,234,190,196,-194,-168
-82,-130,-48,106,-17,-89,197,235,191,197,-193,-167
-81,-129,-48,105,-16,-88,197,236,191,199,-192,-166
-81,-129,-48,105,-16,-88,198,237,191,200,-191,-165
-81,-128,-47,105,-17,-87,197,237,191,200,-191,-165
-81,-128,-47,105,-17,-87,198,237,191,200,-191,-165
-80,-128,-48,104,-16,-88,198,238,192,201,-191,-165
-80,-128,-48,104,-16,-88,198,238,193,201,-191,-165
-80,-127,-47,104,-16,-87,198,239,193,202,-191,-165
-80,-126,-46,103,-17,-86,197,239,194,202,-190,-165
-79,-125,-46,102,-16,-85,197,240,195,204,-189,-164
-78,-124,-46,101,-16,-85,196,239,194,204,-189,-164
-78,-123,-45,101,-16,-84,196,240,195,205,-188,-162
-78,-122,-44,100,-17,-83,195,240,194,206,-187,-163
-77,-122,-45,100,-16,-83,195,241,194,207,-186,-162
-77,-121,-44,99,-16,-82,196,242,194,208,-186,-162
-78,-121,-43,100,-17,-82,196,242,194,208,-185,-162
-78,-121,-43,100,-17,-82,196,242,195,210,-184,-162
-78,-120,-42,99,-18,-81,196,243,196,211,-183,-161
-77,-120,-43,99,-17,-81,195,242,197,211,-183,-162
-77,-118,-41,98,-18,-79,195,243,199,213,-181,-160
-76,-117,-41,97,-17,-79,194,243,199,214,-180,-160
-75,-116,-41,96,-17,-78,193,244,201,215,-178,-160
-75,-115,-40,95,-17,-77,194,245,203,217,-177,-158
-74,-114,-40,94,-17,-77,194,246,204,218,-176,-158
-73,-113,-40,93,-16,-76,195,248,206,220,-174,-157
-73,-113,-40,93,-16,-76,196,249,208,222,-173,-156
-72,-112,-40,92,-16,-76,196,249,210,222,-173,-156
-71,-111,-40,91,-15,-75,196,249,211,223,-172,-155
-71,-110,-39,91,-16,-74,196,251,213,226,-170,-154
-70,-109,-39,90,-15,-74,195,251,215,227,-170,-154
-69,-108,-39,89,-15,-73,195,253,217,230,-168,-152
-68,-107,-39,88,-14,-73,195,253,218,231,-167,-152
-67,-106,-39,87,-14,-72,194,254,220,232,-167,-151
-66,-105,-39,86,-13,-72,195,256,223,233,-165,-150
-66,-104,-38,85,-14,-71,194,256,225,234,-165,-150
-65,-103,-38,84,-13,-70,195,258,228,236,-163,-149
-64,-102,-38,83,-13,-70,195,258,230,238,-163,-148
-64,-101,-37,83,-13,-69,196,260,233,241,-161,-146
-63,-100,-37,82,-13,-68,195,260,235,243,-160,-146
-63,-99,-36,81,-13,-67,196,262,238,247,-158,-144
-62,-98,-36,80,-13,-67,195,263,240,249,-156,-143
-62,-97,-35,80,-13,-66,195,265,242,252,-154,-141
-61,-96,-35,79,-13,-65,194,266,244,254,-153,-141
-60,-95,-35,78,-12,-65,193,267,246,256,-152,-141
-60,-94,-34,77,-13,-64,194,269,250,260,-150,-139
-59,-93,-34,76,-12,-63,193,270,253,261,-149,-139
-59,-93,-34,76,-12,-63,193,272,258,265,-147,-138
-59,-92,-33,76,-13,-62,193,273,262,268,-145,-136
-58,-91,-33,75,-12,-62,192,274,266,271,-144,-136
-58,-90,-32,74,-13,-61,193,276,269,275,-141,-134
-57,-88,-31,73,-13,-59,192,276,272,279,-139,-132
-56,-87,-31,72,-12,-59,191,277,274,282,-137,-131
-55,-86,-31,71,-12,-58,191,279,276,286,-134,-129
-55,-86,-31,71,-12,-58,191,281,280,290,-131,-127
-54,-85,-31,70,-11,-58,190,282,283,294,-129,-126
-54,-84,-30,69,-12,-57,190,284,287,298,-126,-124
-53,-84,-31,69,-11,-57,189,285,291,301,-124,-123
-53,-82,-29,68,-12,-55,189,287,296,306,-121,-121
-52,-81,-29,67,-11,-55,188,288,301,311,-118,-119
-51,-80,-29,66,-11,-54,187,290,305,316,-115,-118
-50,-78,-28,64,-11,-53,185,291,309,321,-111,-116
-49,-77,-28,63,-10,-52,186,294,314,327,-107,-113
-48,-76,-28,62,-10,-52,185,295,318,332,-103,-111
-47,-75,-28,61,-9,-51,184,297,320,337,-100,-109
-47,-73,-26,60,-10,-49,184,299,324,343,-96,-106
-46,-72,-26,59,-10,-49,184,300,328,348,-93,-104
-45,-70,-25,58,-10,-47,183,301,332,353,-90,-102
-44,-68,-24,56,-10,-46,182,302,337,359,-87,-100
-42,-65,-23,54,-9,-44,180,303,341,363,-84,-99
-41,-63,-22,52,-9,-42,179,304,346,370,-80,-96
-39,-60,-21,50,-9,-40,179,306,352,376,-76,-93
-37,-57,-20,47,-8,-38,177,307,355,381,-73,-91
-36,-55,-19,46,-8,-37,178,308,360,386,-69,-88
-34,-53,-19,44,-7,-36,178,309,364,392,-66,-85
-33,-51,-18,42,-7,-34,178,310,367,397,-63,-83
-31,-49,-18,40,-6,-33,177,309,370,400,-60,-82
-30,-47,-17,39,-6,-32,177,309,373,405,-57,-79
-29,-44,-15,37,-7,-29,176,310,377,411,-54,-77
-27,-42,-15,35,-6,-28,176,311,381,416,-50,-74
-26,-39,-13,33,-6,-26,174,310,383,421,-47,-73
-24,-36,-12,30,-6,-24,174,311,387,426,-43,-70
-22,-33,-11,28,-5,-22,173,311,389,431,-41,-68
-20,-31,-11,26,-4,-21,172,311,392,435,-38,-65
-20,-29,-9,25,-5,-19,171,311,394,439,-35,-64
-19,-27,-8,23,-5,-17,171,311,396,442,-33,-62
-19,-26,-7,23,-6,-16,172,311,399,446,-31,-60
-18,-25,-7,22,-5,-16,171,309,401,448,-30,-60
-18,-24,-6,21,-6,-15,171,309,403,450,-28,-58
-18,-23,-5,21,-6,-14,171,307,404,451,-28,-58
-17,-22,-5,20,-6,-13,171,306,404,452,-27,-57
-16,-21,-5,19,-5,-13,170,304,403,452,-27,-58
-16,-21,-5,19,-5,-13,170,302,402,451,-28,-58
-17,-21,-4,19,-6,-12,170,300,401,450,-29,-58
-17,-21,-4,19,-6,-12,170,298,399,448,-30,-60
-18,-22,-4,20,-7,-13,171,296,398,446,-32,-60
-19,-23,-4,21,-7,-13,171,294,396,443,-34,-61
-20,-24,-4,22,-8,-14,170,291,393,439,-37,-64
-22,-25,-3,24,-9,-14,170,288,390,434,-40,-66
-23,-27,-4,25,-9,-15,170,286,386,428,-44,-68
-25,-29,-4,27,-10,-16,171,285,382,422,-47,-70
-26,-32,-6,29,-10,-19,171,282,377,415,-52,-73
-28,-35,-7,32,-10,-21,172,280,371,408,-56,-76
-30,-37,-7,34,-11,-22,172,276,364,400,-62,-80
-32,-41,-9,37,-11,-25,172,274,357,393,-66,-83
-34,-44,-10,39,-12,-27,173,271,351,385,-72,-86
-37,-48,-11,43,-13,-29,174,268,344,376,-77,-90
-40,-52,-12,46,-14,-32,174,265,336,368,-83,-94
-43,-55,-12,49,-15,-33,174,262,330,359,-89,-98
-46,-59,-13,53,-16,-36,175,260,323,351,-93,-101
-48,-63,-15,56,-16,-39,175,257,316,343,-99,-104
-50,-67,-17,59,-16,-42,175,255,308,335,-104,-108
-53,-71,-18,62,-17,-44,176,253,300,327,-110,-112
-55,-75,-20,65,-17,-47,176,250,293,318,-115,-115
-57,-79,-22,68,-17,-50,177,248,285,310,-120,-119
-59,-82,-23,71,-18,-52,177,246,278,302,-126,-123
-61,-86,-25,74,-18,-55,178,244,271,294,-131,-127
-63,-90,-27,77,-18,-58,179,242,264,287,-136,-130
-65,-93,-28,79,-18,-60,179,239,257,279,-142,-134
-67,-96,-29,82,-19,-62,180,238,251,273,-146,-137
-69,-99,-30,84,-19,-64,181,237,245,267,-149,-139
-70,-102,-32,86,-19,-67,181,235,238,261,-153,-142
-71,-105,-34,88,-18,-69,181,233,232,255,-157,-144
-72,-107,-35,90,-18,-71,181,232,226,250,-160,-147
-74,-110,-36,92,-19,-73,183,232,222,245,-162,-148
-75,-113,-38,94,-18,-75,183,231,216,240,-166,-151
-76,-115,-39,96,-18,-77,184,230,212,236,-169,-153
-77,-117,-40,97,-18,-78,184,228,208,232,-171,-155
-78,-119,-41,99,-18,-80,185,227,205,228,-173,-156
-79,-120,-41,100,-19,-80,186,227,201,225,-175,-157
-79,-121,-42,100,-18,-81,185,226,197,222,-178,-159
-79,-122,-43,101,-18,-82,186,226,194,219,-179,-160
-80,-123,-43,102,-18,-83,186,225,191,216,-180,-161
-80,-125,-45,103,-17,-85,187,225,189,214,-181,-162
-80,-126,-46,103,-17,-86,187,225,186,211,-183,-163
-80,-127,-47,104,-16,-87,188,226,185,210,-183,-163
-80,-127,-47,104,-16,-87,188,225,183,208,-184,-163
-80,-128,-48,104,-16,-88,188,225,182,206,-185,-164
-80,-128,-48,104,-16,-88,189,224,181,204,-186,-165
-80,-128,-48,104,-16,-88,189,224,180,203,-186,-165
-79,-128,-49,104,-15,-88,190,224,180,202,-187,-165
-79,-128,-49,104,-15,-88,191,224,179,201,-187,-165
-79,-128,-49,104,-15,-88,192,224,179,199,-187,-166
-79,-128,-49,104,-15,-88,193,225,178,198,-188,-166
-79,-128,-49,104,-15,-88,193,225,177,197,-188,-166
-79,-128,-49,104,-15,-88,194,225,175,195,-188,-166
-79,-129,-50,104,-14,-89,194,225,174,194,-189,-167
-79,-129,-50,104,-14,-89,195,225,172,193,-189,-167
-79,-129,-50,104,-14,-89,195,224,171,192,-190,-167
-79,-129,-50,104,-14,-89,195,224,170,192,-190,-168
-79,-129,-50,104,-14,-89,195,224,170,192,-190,-168
-79,-128,-49,104,-15,-88,194,225,171,192,-191,-168
-78,-128,-50,103,-14,-89,193,224,170,190,-192,-169
-79,-128,-49,104,-15,-88,194,225,171,191,-191,-168
-79,-128,-49,104,-15,-88,194,225,171,190,-191,-168
-80,-128,-48,104,-16,-88,193,224,172,189,-192,-168
-80,-129,-49,105,-15,-89,193,224,171,188,-192,-168
-81,-129,-48,105,-16,-88,193,224,172,188,-192,-168
-82,-129,-47,106,-17,-88,192,223,171,187,-193,-168
-82,-130,-48,106,-17,-89,191,222,170,186,-193,-168
-82,-130,-48,106,-17,-89,191,222,169,186,-193,-168
-82,-130,-48,106,-17,-89,190,222,168,186,-194,-169
-82,-130,-48,106,-17,-89,190,222,166,185,-194,-169
-83,-131,-48,107,-17,-89,190,223,166,185,-193,-168
-82,-131,-49,107,-16,-90,190,222,165,185,-194,-168
-83,-132,-49,108,-17,-90,190,222,164,184,-195,-169
-84,-133,-49,109,-17,-91,191,223,165,184,-194,-168
-84,-133,-49,109,-17,-91,190,222,165,183,-195,-168
-84,-134,-50,109,-17,-92,190,221,165,182,-196,-169
-85,-134,-49,110,-18,-91,190,222,165,183,-195,-168
-86,-134,-48,110,-19,-91,190,221,165,182,-195,-168
-86,-133,-47,110,-19,-90,190,221,164,182,-195,-168
-86,-133,-47,110,-19,-90,189,221,162,181,-195,-168
-87,-133,-46,110,-20,-89,189,221,162,181,-196,-168
-87,-134,-47,111,-20,-90,189,221,161,180,-196,-169
-87,-134,-47,111,-20,-90,189,221,160,179,-196,-169
-87,-134,-47,111,-20,-90,189,221,159,179,-196,-169
-88,-134,-46,111,-21,-90,190,221,160,179,-196,-169
-88,-134,-46,111,-21,-90,190,221,160,179,-196,-169
-88,-134,-46,111,-21,-90,189,221,160,179,-196,-169
-87,-133,-46,110,-20,-89,188,219,159,178,-197,-169
-87,-133,-46,110,-20,-89,188,220,158,178,-197,-169
-86,-132,-46,109,-20,-89,187,219,157,177,-198,-170
-85,-131,-46,108,-19,-88,187,220,157,177,-197,-170
-85,-130,-45,108,-20,-87,186,219,156,176,-197,-171
-84,-130,-46,107,-19,-88,186,219,156,176,-197,-170
-84,-129,-45,107,-19,-87,186,220,156,176,-197,-170
-83,-129,-46,106,-18,-87,186,219,155,176,-198,-171
-83,-128,-45,106,-19,-86,186,219,155,176,-197,-171
-82,-128,-46,105,-18,-87,186,219,155,176,-197,-170
-82,-127,-45,105,-18,-86,185,219,154,176,-197,-170
-81,-126,-45,104,-18,-85,185,219,155,176,-196,-170
-80,-125,-45,103,-17,-85,184,218,154,176,-196,-170
-80,-124,-44,102,-18,-84,185,218,155,177,-195,-169
-79,-123,-44,101,-17,-83,184,217,154,177,-196,-170
-78,-123,-45,101,-16,-84,185,217,155,177,-195,-170
-77,-122,-45,100,-16,-83,185,216,154,176,-196,-170
-77,-121,-44,99,-16,-82,186,217,154,176,-196,-170
-76,-120,-44,98,-16,-82,185,216,152,175,-197,-171
-76,-119,-43,98,-16,-81,186,216,152,176,-196,-170
-75,-119,-44,97,-15,-81,185,215,150,175,-197,-171
-75,-118,-43,97,-16,-80,186,215,150,176,-196,-170
-75,-118,-43,97,-16,-80,186,215,150,177,-196,-170
-75,-118,-43,97,-16,-80,186,216,149,178,-195,-170
-75,-119,-44,97,-15,-81,186,216,149,178,-195,-170
-75,-119,-44,97,-15,-81,186,216,149,178,-196,-170
-75,-119,-44,97,-15,-81,185,216,149,178,-196,-170
-75,-120,-45,98,-15,-82,186,216,150,178,-196,-170
-76,-121,-45,99,-15,-83,185,215,150,177,-196,-170
-76,-121,-45,99,-15,-83,185,215,150,177,-197,-171
-76,-121,-45,99,-15,-83,185,214,149,176,-198,-171
-76,-121,-45,99,-15,-83,184,213,148,175,-198,-172
-76,-122,-46,99,-15,-84,184,213,148,176,-198,-172
-76,-122,-46,99,-15,-84,184,213,146,175,-199,-172
-77,-123,-46,100,-15,-84,184,212,144,174,-200,-173
-77,-123,-46,100,-15,-84,183,211,143,173,-201,-174
-78,-124,-46,101,-16,-85,183,211,143,173,-201,-174
-79,-125,-46,102,-16,-85,183,211,143,173,-201,-174
-81,-126,-45,104,-18,-85,183,211,143,172,-201,-175
-82,-126,-44,104,-19,-85,182,210,142,172,-202,-176
-82,-127,-45,105,-18,-86,181,209,141,171,-202,-176
-83,-128,-45,106,-19,-86,182,210,141,171,-202,-176
-84,-129,-45,107,-19,-87,182,210,140,171,-201,-176
-85,-130,-45,108,-20,-87,182,209,139,171,-202,-177
-85,-131,-46,108,-19,-88,183,210,138,171,-202,-177
-85,-132,-47,109,-19,-89,182,208,136,169,-203,-178
-86,-133,-47,110,-19,-90,183,208,136,169,-202,-178
-87,-133,-46,110,-20,-89,182,208,135,168,-203,-178
-87,-134,-47,111,-20,-90,181,207,134,168,-204,-178
-87,-134,-47,111,-20,-90,180,207,133,167,-204,-179
-88,-134,-46,111,-21,-90,180,207,134,168,-203,-178
"
		-88","
		-134","
		-46","
		111","
		-21","
		-90","
		179","
		207","
		134","
		168","
		-203","
		-178"
-87,-134,-47,111,-20,-90,177,206,132,167,-204,-179
-87,-135,-48,111,-19,-91,178,207,133,167,-203,-178
-88,-135,-47,112,-20,-91,178,207,133,167,-204,-178
-88,-135,-47,112,-20,-91,178,206,133,166,-204,-178
-88,-135,-47,112,-20,-91,179,206,133,166,-204,-178
-88,-135,-47,112,-20,-91,179,206,133,166,-204,-179
-87,-136,-49,112,-19,-92,179,206,133,166,-205,-179
-87,-135,-48,111,-19,-91,180,206,133,166,-205,-178
-87,-135,-48,111,-19,-91,180,206,133,166,-204,-178
-86,-134,-48,110,-19,-91,179,206,132,165,-205,-179
-86,-134,-48,110,-19,-91,179,206,132,166,-204,-178
-85,-133,-48,109,-18,-90,178,206,131,165,-204,-178
-85,-133,-48,109,-18,-90,179,206,131,166,-204,-178
-84,-133,-49,109,-17,-91,179,207,131,166,-203,-177
-84,-132,-48,108,-18,-90,179,207,131,166,-203,-177
-83,-132,-49,108,-17,-90,179,206,132,165,-204,-178
-83,-132,-49,108,-17,-90,179,207,133,165,-204,-177
-82,-132,-50,107,-16,-91,179,207,133,165,-204,-177
-82,-131,-49,107,-16,-90,179,207,133,166,-203,-176
-81,-131,-50,106,-15,-90,179,207,132,165,-204,-176
-80,-130,-50,105,-15,-90,179,207,132,166,-204,-176
-80,-130,-50,105,-15,-90,180,208,132,166,-203,-176
-80,-130,-50,105,-15,-90,181,208,132,167,-202,-175
-80,-130,-50,105,-15,-90,181,208,133,167,-202,-175
-79,-130,-51,105,-14,-90,181,208,134,167,-203,-176
-79,-130,-51,105,-14,-90,181,208,136,167,-203,-176
-79,-130,-51,105,-14,-90,181,208,136,167,-202,-175
-78,-130,-52,104,-13,-91,181,209,135,166,-202,-175
-78,-129,-51,104,-13,-90,181,209,135,166,-202,-175
-78,-129,-51,104,-13,-90,181,209,134,166,-202,-175
-78,-129,-51,104,-13,-90,181,209,133,166,-202,-175
-78,-129,-51,104,-13,-90,181,209,132,166,-202,-176
-79,-129,-50,104,-14,-89,180,208,132,166,-203,-176
-79,-130,-51,105,-14,-90,180,208,132,166,-203,-177
-80,-131,-51,106,-14,-91,180,208,132,166,-203,-176
-80,-132,-52,106,-14,-92,180,208,132,166,-203,-177
-81,-132,-51,107,-15,-91,181,208,133,167,-203,-176
-81,-133,-52,107,-14,-92,180,207,132,166,-203,-177
-82,-133,-51,108,-15,-92,180,206,132,166,-203,-177
-82,-134,-52,108,-15,-93,181,207,132,167,-203,-177
-82,-134,-52,108,-15,-93,180,207,132,166,-203,-177
-82,-135,-53,109,-14,-94,180,207,131,166,-204,-178
-83,-135,-52,109,-15,-93,179,206,131,164,-205,-178
-84,-136,-52,110,-16,-94,180,207,131,164,-204,-178
-84,-137,-53,111,-15,-95,179,206,130,164,-205,-179
-85,-137,-52,111,-16,-94,180,206,130,164,-204,-179
-85,-137,-52,111,-16,-94,179,205,129,163,-205,-179
-85,-138,-53,112,-16,-95,179,204,128,163,-205,-180
-85,-138,-53,112,-16,-95,179,204,127,162,-205,-180
-85,-138,-53,112,-16,-95,178,204,127,162,-206,-180
-86,-138,-52,112,-17,-95,177,204,126,162,-206,-180
-86,-138,-52,112,-17,-95,177,203,126,162,-206,-181
-86,-138,-52,112,-17,-95,177,203,125,161,-206,-181
-87,-139,-52,113,-17,-95,178,204,126,162,-205,-180
-87,-139,-52,113,-17,-95,179,204,126,161,-206,-181
-87,-139,-52,113,-17,-95,179,203,126,161,-206,-181
-87,-140,-53,114,-17,-96,179,203,127,160,-206,-181
-87,-139,-52,113,-17,-95,179,203,127,160,-206,-181
-86,-139,-53,113,-16,-96,180,204,127,161,-206,-181
-86,-139,-53,113,-16,-96,180,204,126,161,-205,-180
-86,-139,-53,113,-16,-96,180,204,126,161,-205,-180
-86,-139,-53,113,-16,-96,180,205,126,161,-205,-180
-86,-139,-53,113,-16,-96,181,205,126,161,-205,-180
-86,-139,-53,113,-16,-96,181,205,126,161,-205,-179
-86,-139,-53,113,-16,-96,181,205,126,161,-205,-179
-86,-139,-53,113,-16,-96,182,205,127,161,-205,-179
-86,-139,-53,113,-16,-96,182,206,128,161,-205,-179
-85,-138,-53,112,-16,-95,181,205,127,160,-206,-180
-85,-137,-52,111,-16,-94,181,205,128,161,-206,-179
-84,-137,-53,111,-15,-95,180,205,128,160,-206,-180
-84,-136,-52,110,-16,-94,181,205,128,161,-206,-179
-83,-136,-53,110,-15,-94,181,206,128,161,-205,-178
-82,-135,-53,109,-14,-94,180,205,127,160,-206,-179
-82,-135,-53,109,-14,-94,181,206,127,160,-206,-178
-82,-135,-53,109,-14,-94,181,206,127,161,-205,-178
-81,-135,-54,108,-13,-94,182,206,128,161,-205,-178
-81,-135,-54,108,-13,-94,182,207,129,161,-205,-177
-80,-134,-54,107,-13,-94,181,206,129,161,-205,-178
-80,-134,-54,107,-13,-94,181,207,129,162,-204,-177
-79,-133,-54,106,-12,-93,180,206,129,162,-205,-177
-79,-133,-54,106,-12,-93,180,207,130,162,-205,-177
-78,-132,-54,105,-12,-93,180,207,130,163,-204,-177
-78,-132,-54,105,-12,-93,181,208,130,163,-204,-176
-78,-131,-53,105,-12,-92,180,207,129,162,-205,-177
-78,-132,-54,105,-12,-93,182,208,129,162,-204,-176
-78,-132,-54,105,-12,-93,182,207,129,162,-204,-176
-78,-132,-54,105,-12,-93,182,207,129,161,-204,-176
-78,-132,-54,105,-12,-93,181,207,129,161,-204,-176
-78,-131,-53,105,-12,-92,180,206,128,161,-205,-177
-78,-131,-53,105,-12,-92,180,206,127,161,-205,-177
-78,-131,-53,105,-12,-92,180,206,127,161,-205,-176
-78,-131,-53,105,-12,-92,179,205,127,161,-205,-177
-78,-131,-53,105,-12,-92,179,205,127,161,-205,-177
-79,-132,-53,106,-13,-92,180,206,127,162,-205,-177
-79,-132,-53,106,-13,-92,180,206,127,162,-205,-177
-80,-133,-53,107,-13,-93,181,206,128,162,-205,-177
-80,-134,-54,107,-13,-94,180,206,128,162,-205,-177
-80,-134,-54,107,-13,-94,179,205,128,161,-206,-177
-81,-134,-53,108,-14,-93,179,204,128,161,-206,-178
-81,-134,-53,108,-14,-93,178,204,127,160,-206,-178
-81,-135,-54,108,-13,-94,179,205,127,161,-205,-177
-81,-135,-54,108,-13,-94,179,205,127,160,-205,-177
-81,-135,-54,108,-13,-94,179,204,126,160,-205,-177
-82,-136,-54,109,-14,-95,179,204,125,160,-205,-178
-82,-136,-54,109,-14,-95,179,204,125,160,-205,-178
-83,-136,-53,110,-15,-94,181,205,126,161,-205,-178
-83,-137,-54,110,-14,-95,180,204,125,160,-205,-178
-84,-137,-53,111,-15,-95,180,204,125,160,-205,-178
-84,-137,-53,111,-15,-95,180,204,125,160,-206,-178
-84,-137,-53,111,-15,-95,180,204,125,159,-206,-178
-84,-137,-53,111,-15,-95,179,203,124,159,-206,-178
-84,-138,-54,111,-15,-96,179,204,125,160,-205,-177
-84,-138,-54,111,-15,-96,179,204,125,159,-206,-177
-83,-138,-55,111,-14,-96,178,203,124,158,-207,-179
-83,-138,-55,111,-14,-96,178,202,124,158,-207,-179
-84,-139,-55,112,-14,-97,179,203,125,159,-206,-178
-84,-139,-55,112,-14,-97,179,203,125,158,-206,-179
-84,-139,-55,112,-14,-97,179,202,124,158,-206,-179
-85,-139,-54,112,-15,-96,178,202,124,158,-206,-179
-85,-139,-54,112,-15,-96,178,202,123,158,-206,-179
-86,-139,-53,113,-16,-96,178,204,124,159,-205,-178
-86,-139,-53,113,-16,-96,178,204,124,158,-205,-178
-86,-138,-52,112,-17,-95,178,203,123,157,-206,-179
-85,-138,-53,112,-16,-95,178,203,124,157,-207,-179
-85,-138,-53,112,-16,-95,178,203,124,157,-207,-179
-85,-138,-53,112,-16,-95,178,202,124,157,-207,-179
-85,-137,-52,111,-16,-94,179,202,125,157,-207,-179
-85,-137,-52,111,-16,-94,179,202,124,157,-207,-179
-84,-137,-53,111,-15,-95,177,200,123,156,-207,-180
-84,-136,-52,110,-16,-94,177,200,124,156,-207,-180
-84,-136,-52,110,-16,-94,177,201,124,156,-207,-180
-83,-136,-53,110,-15,-94,178,201,124,156,-207,-179
-83,-136,-53,110,-15,-94,178,201,123,155,-207,-180
-83,-135,-52,109,-15,-93,178,201,123,154,-208,-181
-83,-135,-52,109,-15,-93,178,201,124,154,-208,-181
-83,-135,-52,109,-15,-93,179,201,124,153,-208,-180
-83,-135,-52,109,-15,-93,179,201,124,153,-208,-180
-83,-134,-51,109,-16,-92,179,201,125,154,-207,-180
-83,-134,-51,109,-16,-92,179,201,125,154,-207,-180
-82,-134,-52,108,-15,-93,179,202,125,155,-206,-179
-82,-134,-52,108,-15,-93,179,202,125,156,-206,-179
-82,-134,-52,108,-15,-93,179,203,125,156,-205,-179
-82,-135,-53,109,-14,-94,179,203,124,157,-205,-179
-82,-135,-53,109,-14,-94,179,202,124,157,-205,-179
-82,-135,-53,109,-14,-94,180,202,124,157,-205,-180
-82,-135,-53,109,-14,-94,179,202,124,157,-205,-180
-82,-135,-53,109,-14,-94,179,201,124,157,-205,-180
-82,-135,-53,109,-14,-94,179,201,125,157,-205,-180
-81,-135,-54,108,-13,-94,179,201,126,157,-205,-180
-82,-135,-53,109,-14,-94,179,201,126,156,-205,-179
-82,-135,-53,109,-14,-94,179,201,125,156,-204,-179
-82,-136,-54,109,-14,-95,179,201,125,156,-204,-179
-82,-136,-54,109,-14,-95,179,201,123,156,-204,-180
-82,-136,-54,109,-14,-95,178,201,122,155,-205,-181
-83,-137,-54,110,-14,-95,180,202,123,156,-204,-180
-83,-137,-54,110,-14,-95,180,201,123,156,-205,-181
-83,-137,-54,110,-14,-95,179,200,123,156,-205,-181
-83,-137,-54,110,-14,-95,179,200,123,155,-205,-181
-83,-137,-54,110,-14,-95,179,200,123,155,-206,-181
-84,-137,-53,111,-15,-95,179,200,123,155,-206,-181
-84,-137,-53,111,-15,-95,179,200,122,155,-206,-181
-85,-137,-52,111,-16,-94,179,201,123,156,-205,-181
-85,-137,-52,111,-16,-94,179,201,123,155,-205,-181
-85,-137,-52,111,-16,-94,179,201,122,155,-205,-181
-85,-137,-52,111,-16,-94,179,201,123,155,-206,-181
-85,-137,-52,111,-16,-94,179,201,123,154,-206,-181
-85,-137,-52,111,-16,-94,179,201,122,154,-206,-181
-84,-137,-53,111,-15,-95,178,200,121,153,-207,-182
-84,-136,-52,110,-16,-94,178,200,121,153,-207,-182
-84,-136,-52,110,-16,-94,178,200,121,153,-207,-181
-84,-136,-52,110,-16,-94,178,200,120,153,-207,-181
-84,-136,-52,110,-16,-94,178,200,119,153,-207,-180
-83,-136,-53,110,-15,-94,178,200,119,153,-207,-180
-83,-136,-53,110,-15,-94,179,200,120,153,-207,-180
-83,-136,-53,110,-15,-94,179,200,121,153,-207,-180
-83,-136,-53,110,-15,-94,179,200,122,153,-207,-180
-83,-136,-53,110,-15,-94,179,200,123,152,-207,-179
-83,-135,-52,109,-15,-93,179,199,122,152,-208,-180
-83,-135,-52,109,-15,-93,179,200,122,152,-208,-180
-83,-135,-52,109,-15,-93,179,200,121,153,-207,-180
-83,-134,-51,109,-16,-92,179,200,120,153,-207,-179
-82,-134,-52,108,-15,-93,179,200,121,154,-206,-178
-82,-134,-52,108,-15,-93,180,201,121,155,-206,-178
-82,-134,-52,108,-15,-93,180,202,122,155,-205,-177
-82,-134,-52,108,-15,-93,180,202,122,155,-205,-177
-81,-134,-53,108,-14,-93,179,201,122,155,-206,-178
-81,-134,-53,108,-14,-93,179,201,122,156,-206,-178
-80,-133,-53,107,-13,-93,179,202,122,156,-205,-177
-80,-132,-52,106,-14,-92,178,201,121,155,-206,-178
-80,-132,-52,106,-14,-92,178,201,122,156,-206,-178
-79,-131,-52,105,-13,-91,178,202,123,156,-206,-177
-79,-131,-52,105,-13,-91,178,202,123,155,-206,-177
-80,-131,-51,106,-14,-91,178,201,123,155,-206,-178
