I,II,III,aVR,aVL,aVF,V1,V2,V3,V4,V5,V6
73,394,321,-233,-124,358,-19,-47,-204,-159,-228,-148
73,395,322,-234,-124,359,-21,-48,-206,-161,-230,-150
73,397,324,-235,-125,361,-21,-49,-207,-161,-229,-150
73,398,325,-235,-126,362,-23,-50,-209,-162,-230,-152
73,399,326,-236,-126,363,-23,-51,-209,-161,-230,-152
72,398,326,-235,-127,362,-22,-50,-209,-161,-229,-151
72,397,325,-234,-126,361,-22,-49,-208,-161,-229,-150
74,396,322,-235,-124,359,-21,-49,-207,-159,-228,-150
75,395,320,-235,-122,358,-20,-48,-205,-158,-228,-149
76,395,319,-235,-121,357,-20,-49,-206,-158,-229,-150
76,395,319,-235,-121,357,-20,-49,-205,-158,-229,-150
75,397,322,-236,-123,360,-20,-49,-205,-158,-229,-150
73,399,326,-236,-126,363,-21,-49,-206,-159,-229,-150
71,400,329,-235,-129,365,-22,-49,-207,-159,-230,-151
72,400,328,-236,-128,364,-23,-50,-208,-160,-230,-151
73,399,326,-236,-126,363,-23,-51,-208,-160,-230,-151
73,398,325,-235,-126,362,-22,-51,-208,-160,-230,-150
74,397,323,-235,-124,360,-21,-50,-208,-159,-230,-150
75,396,321,-235,-123,359,-20,-49,-206,-158,-230,-150
75,396,321,-235,-123,359,-20,-49,-205,-158,-229,-150
75,397,322,-236,-123,360,-20,-48,-204,-158,-229,-149
74,398,324,-236,-125,361,-20,-48,-205,-159,-229,-150
74,400,326,-237,-126,363,-22,-50,-207,-160,-230,-151
73,401,328,-237,-127,365,-23,-51,-208,-160,-230,-151
73,402,329,-237,-128,366,-23,-51,-209,-160,-229,-151
73,401,328,-237,-127,365,-23,-51,-209,-160,-229,-151
73,400,327,-236,-127,364,-22,-50,-207,-159,-228,-150
73,398,325,-235,-126,362,-21,-50,-206,-159,-228,-150
73,397,324,-235,-125,361,-19,-48,-204,-158,-228,-148
74,397,323,-235,-124,360,-20,-49,-205,-159,-229,-148
74,398,324,-236,-125,361,-20,-49,-205,-159,-229,-148
74,399,325,-236,-125,362,-20,-49,-207,-161,-229,-149
74,400,326,-237,-126,363,-21,-51,-210,-163,-230,-150
74,401,327,-237,-126,364,-22,-51,-211,-162,-230,-151
74,401,327,-237,-126,364,-22,-51,-212,-161,-230,-151
74,401,327,-237,-126,364,-23,-51,-211,-161,-230,-151
75,400,325,-237,-125,363,-22,-51,-208,-160,-230,-151
75,399,324,-237,-124,362,-22,-50,-205,-158,-229,-150
75,398,323,-236,-124,361,-20,-49,-203,-157,-228,-148
74,398,324,-236,-125,361,-20,-49,-204,-158,-228,-148
73,399,326,-236,-126,363,-21,-49,-205,-157,-228,-148
73,400,327,-236,-127,364,-21,-49,-206,-157,-227,-148
74,401,327,-237,-126,364,-22,-50,-208,-158,-228,-149
74,402,328,-238,-127,365,-23,-50,-208,-159,-228,-150
74,402,328,-238,-127,365,-23,-50,-208,-159,-228,-151
74,402,328,-238,-127,365,-23,-50,-208,-160,-228,-151
75,401,326,-238,-125,364,-20,-50,-206,-159,-228,-150
75,399,324,-237,-124,362,-18,-48,-203,-158,-228,-149
76,398,322,-237,-123,360,-16,-46,-201,-157,-228,-149
77,397,320,-237,-121,359,-15,-44,-201,-157,-228,-149
78,397,319,-237,-120,358,-15,-43,-202,-158,-229,-149
78,397,319,-237,-120,358,-15,-43,-202,-157,-229,-150
79,398,319,-238,-120,359,-16,-42,-202,-157,-228,-151
80,400,320,-240,-120,360,-17,-41,-201,-157,-228,-151
81,401,320,-241,-119,361,-16,-39,-199,-155,-227,-151
82,401,319,-241,-118,360,-14,-37,-196,-151,-227,-150
84,400,316,-242,-116,358,-12,-33,-192,-147,-226,-148
85,399,314,-242,-114,357,-10,-30,-189,-144,-224,-146
86,397,311,-241,-112,354,-9,-28,-186,-143,-223,-145
87,397,310,-242,-111,354,-9,-27,-185,-143,-222,-144
87,398,311,-242,-112,355,-9,-27,-186,-143,-222,-144
87,399,312,-243,-112,356,-11,-28,-188,-144,-223,-145
87,400,313,-243,-113,357,-12,-29,-189,-145,-223,-145
86,402,316,-244,-115,359,-12,-29,-190,-146,-223,-146
86,403,317,-244,-115,360,-11,-29,-191,-147,-224,-148
85,402,317,-243,-116,360,-8,-28,-189,-146,-224,-148
85,402,317,-243,-116,360,-7,-27,-189,-147,-224,-147
86,401,315,-243,-114,358,-7,-27,-188,-146,-224,-146
87,400,313,-243,-113,357,-9,-26,-187,-145,-224,-145
89,399,310,-244,-110,355,-11,-25,-187,-145,-224,-144
90,399,309,-244,-109,354,-16,-26,-190,-147,-225,-145
91,400,309,-245,-109,355,-19,-27,-192,-148,-224,-146
91,402,311,-246,-110,357,-24,-31,-195,-151,-225,-147
88,404,316,-246,-114,360,-27,-37,-199,-153,-226,-149
86,404,318,-245,-116,361,-29,-43,-203,-155,-227,-150
84,403,319,-243,-117,361,-28,-48,-207,-156,-228,-150
82,402,320,-242,-119,361,-26,-51,-209,-156,-228,-148
82,401,319,-241,-118,360,-25,-52,-209,-157,-229,-148
82,400,318,-241,-118,359,-23,-51,-207,-157,-228,-147
82,399,317,-240,-117,358,-23,-51,-208,-158,-229,-148
82,398,316,-240,-117,357,-24,-52,-210,-160,-230,-149
83,397,314,-240,-115,356,-25,-52,-211,-160,-231,-150
84,397,313,-240,-114,355,-25,-51,-211,-160,-231,-151
84,397,313,-240,-114,355,-25,-49,-210,-159,-230,-151
84,398,314,-241,-115,356,-24,-49,-210,-158,-229,-150
83,399,316,-241,-116,358,-24,-50,-209,-158,-229,-150
83,399,316,-241,-116,358,-25,-52,-210,-159,-230,-149
82,398,316,-240,-117,357,-26,-53,-211,-160,-230,-149
82,397,315,-239,-116,356,-24,-52,-209,-159,-229,-147
82,398,316,-240,-117,357,-24,-53,-210,-160,-229,-148
82,399,317,-240,-117,358,-24,-53,-211,-160,-229,-147
80,400,320,-240,-120,360,-24,-54,-212,-160,-229,-148
77,400,323,-238,-123,362,-24,-54,-212,-160,-229,-149
76,400,324,-238,-124,362,-25,-55,-214,-161,-231,-151
75,399,324,-237,-124,362,-26,-57,-216,-164,-234,-154
73,399,326,-236,-126,363,-24,-56,-215,-166,-234,-155
72,399,327,-235,-127,363,-23,-55,-213,-166,-233,-154
74,399,325,-236,-125,362,-21,-54,-211,-163,-231,-152
75,398,323,-236,-124,361,-20,-54,-212,-162,-232,-151
74,398,324,-236,-125,361,-20,-55,-213,-163,-233,-152
73,397,324,-235,-125,361,-19,-54,-212,-162,-232,-151
73,397,324,-235,-125,361,-20,-55,-213,-162,-233,-152
73,398,325,-235,-126,362,-22,-56,-215,-163,-233,-153
74,400,326,-237,-126,363,-24,-57,-216,-164,-233,-154
75,400,325,-237,-125,363,-24,-57,-215,-163,-233,-154
75,400,325,-237,-125,363,-24,-57,-215,-163,-232,-154
75,399,324,-237,-124,362,-24,-57,-215,-162,-232,-153
74,398,324,-236,-125,361,-22,-56,-213,-161,-232,-152
72,397,325,-234,-126,361,-20,-54,-211,-159,-232,-151
72,396,324,-234,-126,360,-20,-54,-211,-159,-232,-151
72,397,325,-234,-126,361,-20,-54,-211,-159,-232,-151
73,398,325,-235,-126,362,-21,-55,-212,-160,-233,-152
72,400,328,-236,-128,364,-21,-55,-211,-160,-232,-153
72,401,329,-236,-128,365,-22,-56,-213,-161,-232,-153
72,401,329,-236,-128,365,-23,-56,-214,-162,-232,-154
73,400,327,-236,-127,364,-22,-57,-214,-161,-232,-154
74,399,325,-236,-125,362,-22,-56,-214,-160,-231,-153
74,398,324,-236,-125,361,-21,-55,-213,-160,-232,-152
74,398,324,-236,-125,361,-21,-54,-212,-160,-233,-152
73,397,324,-235,-125,361,-19,-52,-210,-160,-232,-151
72,398,326,-235,-127,362,-18,-52,-210,-160,-232,-150
71,399,328,-235,-128,364,-19,-52,-210,-161,-232,-151
72,400,328,-236,-128,364,-21,-54,-211,-161,-233,-152
73,401,328,-237,-127,365,-23,-56,-213,-162,-233,-154
73,401,328,-237,-127,365,-24,-56,-214,-162,-233,-155
73,401,328,-237,-127,365,-23,-56,-214,-162,-233,-155
73,400,327,-236,-127,364,-21,-54,-212,-160,-232,-153
73,399,326,-236,-126,363,-20,-53,-211,-160,-232,-153
73,398,325,-235,-126,362,-19,-52,-210,-160,-232,-152
73,398,325,-235,-126,362,-19,-52,-210,-160,-232,-152
73,398,325,-235,-126,362,-19,-52,-210,-160,-233,-152
72,399,327,-235,-127,363,-20,-53,-211,-161,-233,-152
73,401,328,-237,-127,365,-21,-54,-212,-161,-233,-154
73,402,329,-237,-128,366,-22,-54,-212,-161,-232,-154
73,403,330,-238,-128,367,-22,-54,-212,-160,-231,-153
73,403,330,-238,-128,367,-22,-54,-211,-159,-232,-153
74,403,329,-238,-127,366,-22,-55,-211,-160,-233,-153
74,402,328,-238,-127,365,-21,-53,-209,-158,-232,-152
74,401,327,-237,-126,364,-20,-52,-208,-158,-231,-151
73,400,327,-236,-127,364,-19,-51,-207,-157,-231,-150
73,399,326,-236,-126,363,-18,-50,-207,-158,-231,-151
72,401,329,-236,-128,365,-18,-50,-206,-158,-231,-151
73,402,329,-237,-128,366,-19,-50,-207,-158,-232,-152
73,402,329,-237,-128,366,-19,-49,-206,-159,-234,-154
72,402,330,-237,-129,366,-18,-46,-205,-161,-236,-157
70,400,330,-235,-130,365,-12,-39,-198,-160,-237,-157
69,399,330,-234,-130,365,-5,-32,-188,-159,-239,-160
67,400,333,-233,-133,367,3,-22,-174,-157,-241,-161
64,401,337,-232,-136,369,9,-13,-157,-152,-241,-161
64,406,342,-235,-139,374,14,-6,-137,-142,-238,-159
67,415,348,-241,-140,382,12,-6,-118,-126,-229,-154
71,429,358,-250,-143,394,8,-9,-95,-105,-216,-146
76,445,369,-260,-146,407,4,-8,-66,-76,-199,-137
83,463,380,-273,-148,422,-3,-6,-39,-39,-179,-124
96,482,386,-289,-145,434,-14,-3,-12,6,-149,-104
115,504,389,-309,-137,447,-31,5,12,55,-112,-79
139,533,394,-336,-127,464,-51,10,22,104,-67,-46
161,571,410,-366,-124,491,-79,-20,-7,152,-10,-1
180,619,439,-399,-129,529,-123,-101,-105,191,54,51
193,672,479,-432,-143,576,-174,-205,-253,215,123,105
203,725,522,-464,-159,624,-225,-303,-405,235,195,162
211,775,564,-493,-176,670,-274,-395,-548,262,266,217
215,819,604,-517,-194,712,-321,-499,-694,279,327,264
216,850,634,-533,-209,742,-360,-605,-844,260,365,297
213,852,639,-532,-213,746,-383,-686,-962,204,374,310
200,824,624,-512,-212,724,-385,-735,-1031,129,350,299
175,774,599,-474,-212,687,-363,-753,-1067,32,297,269
148,712,564,-430,-208,638,-328,-730,-1075,-96,222,229
129,646,517,-387,-194,582,-298,-679,-1055,-238,139,183
113,590,477,-351,-182,534,-280,-629,-1016,-363,63,137
102,544,442,-323,-170,493,-266,-571,-952,-441,-6,94
97,498,401,-297,-152,450,-240,-487,-855,-470,-77,46
93,442,349,-267,-128,396,-194,-388,-743,-465,-156,-15
86,388,302,-237,-108,345,-142,-303,-644,-426,-227,-80
80,350,270,-215,-95,310,-98,-236,-559,-366,-269,-128
82,332,250,-207,-84,291,-71,-182,-481,-308,-285,-153
89,331,242,-210,-76,287,-58,-137,-410,-263,-284,-162
95,341,246,-218,-75,294,-52,-107,-351,-224,-275,-162
97,354,257,-225,-80,306,-51,-89,-304,-192,-266,-160
97,368,271,-232,-87,320,-51,-77,-266,-168,-257,-156
97,383,286,-240,-94,335,-51,-66,-233,-149,-245,-150
96,397,301,-246,-102,349,-51,-59,-205,-129,-234,-144
94,403,309,-248,-107,356,-48,-51,-188,-117,-231,-145
91,402,311,-246,-110,357,-43,-45,-181,-116,-233,-150
88,400,312,-244,-112,356,-38,-39,-175,-115,-236,-155
86,398,312,-242,-113,355,-34,-32,-168,-111,-236,-159
85,397,312,-241,-113,355,-30,-26,-160,-110,-236,-160
84,395,311,-239,-113,353,-25,-22,-156,-111,-237,-160
83,393,310,-238,-113,352,-22,-19,-152,-113,-239,-159
83,391,308,-237,-112,350,-21,-17,-149,-115,-243,-161
82,389,307,-235,-112,348,-19,-14,-146,-115,-244,-162
82,390,308,-236,-113,349,-18,-13,-145,-115,-245,-164
81,391,310,-236,-114,351,-18,-13,-144,-115,-247,-166
81,391,310,-236,-114,351,-18,-13,-143,-116,-247,-168
82,392,310,-237,-114,351,-19,-14,-144,-117,-248,-170
82,392,310,-237,-114,351,-19,-12,-142,-116,-248,-170
82,391,309,-236,-113,350,-17,-9,-139,-115,-246,-169
81,390,309,-235,-114,350,-15,-7,-137,-115,-245,-167
81,389,308,-235,-113,349,-13,-4,-132,-113,-245,-165
80,389,309,-234,-114,349,-11,-1,-129,-113,-245,-165
81,389,308,-235,-113,349,-10,0,-127,-114,-246,-166
81,388,307,-234,-113,348,-10,-2,-127,-113,-247,-168
80,388,308,-234,-114,348,-11,-2,-128,-113,-249,-170
80,389,309,-234,-114,349,-12,-3,-129,-114,-250,-171
81,390,309,-235,-114,350,-13,-4,-130,-115,-250,-172
81,390,309,-235,-114,350,-13,-3,-129,-115,-250,-172
82,390,308,-236,-113,349,-12,-2,-128,-115,-249,-171
82,390,308,-236,-113,349,-11,-1,-127,-114,-248,-170
82,389,307,-235,-112,348,-10,1,-125,-113,-248,-169
81,387,306,-234,-112,347,-8,3,-122,-112,-247,-168
81,386,305,-233,-112,346,-7,4,-120,-112,-246,-168
81,386,305,-233,-112,346,-7,4,-120,-111,-247,-169
80,387,307,-233,-113,347,-8,3,-120,-110,-247,-170
80,388,308,-234,-114,348,-10,2,-122,-110,-249,-172
81,389,308,-235,-113,349,-11,1,-124,-109,-249,-172
81,389,308,-235,-113,349,-12,1,-123,-108,-248,-173
82,389,307,-235,-112,348,-12,1,-123,-109,-249,-173
82,389,307,-235,-112,348,-11,2,-121,-108,-247,-171
82,388,306,-235,-112,347,-9,5,-117,-106,-245,-169
82,387,305,-234,-111,346,-8,7,-114,-105,-245,-168
81,386,305,-233,-112,346,-6,8,-112,-104,-245,-168
80,386,306,-233,-113,346,-7,8,-112,-104,-246,-170
80,386,306,-233,-113,346,-8,7,-113,-105,-247,-171
80,387,307,-233,-113,347,-10,5,-114,-105,-248,-172
80,389,309,-234,-114,349,-12,4,-116,-105,-248,-173
79,389,310,-234,-115,350,-12,4,-116,-105,-248,-173
80,388,308,-234,-114,348,-11,5,-115,-104,-246,-173
81,388,307,-234,-113,348,-9,6,-113,-102,-245,-172
82,387,305,-234,-111,346,-9,7,-112,-102,-246,-171
83,386,303,-234,-110,345,-8,8,-111,-104,-247,-170
83,385,302,-234,-109,344,-8,8,-110,-105,-247,-170
83,386,303,-234,-110,345,-8,8,-111,-104,-247,-171
82,386,304,-234,-111,345,-9,7,-112,-104,-248,-173
81,387,306,-234,-112,347,-11,5,-114,-104,-249,-174
81,387,306,-234,-112,347,-13,4,-115,-104,-250,-175
81,387,306,-234,-112,347,-12,4,-114,-103,-250,-175
82,387,305,-234,-111,346,-12,5,-113,-102,-250,-175
82,387,305,-234,-111,346,-11,6,-111,-101,-249,-174
83,385,302,-234,-109,344,-10,7,-109,-100,-249,-173
82,384,302,-233,-110,343,-8,10,-106,-99,-248,-172
82,383,301,-232,-109,342,-8,10,-105,-99,-249,-173
81,384,303,-232,-111,344,-8,10,-105,-101,-251,-174
81,384,303,-232,-111,344,-9,9,-106,-102,-252,-175
81,385,304,-233,-111,345,-10,8,-108,-102,-252,-177
81,386,305,-233,-112,346,-12,8,-109,-101,-253,-178
80,386,306,-233,-113,346,-12,8,-109,-100,-253,-178
81,384,303,-232,-111,344,-11,8,-108,-101,-253,-177
82,384,302,-233,-110,343,-10,9,-106,-100,-252,-176
83,384,301,-233,-109,343,-9,11,-104,-100,-252,-176
83,383,300,-233,-108,342,-8,13,-102,-100,-253,-176
83,382,299,-232,-108,341,-8,13,-102,-103,-255,-176
83,382,299,-232,-108,341,-8,12,-102,-104,-257,-177
82,383,301,-232,-109,342,-9,11,-104,-104,-257,-179
81,383,302,-232,-110,343,-10,11,-104,-104,-257,-180
81,383,302,-232,-110,343,-11,11,-105,-104,-258,-180
82,383,301,-232,-109,342,-12,10,-106,-105,-260,-181
83,383,300,-233,-108,342,-11,11,-105,-105,-261,-181
83,382,299,-232,-108,341,-10,12,-103,-105,-261,-180
83,381,298,-232,-107,340,-8,14,-100,-104,-260,-178
83,380,297,-231,-107,339,-8,15,-99,-104,-261,-178
82,379,297,-230,-107,338,-6,16,-98,-104,-262,-178
82,380,298,-231,-108,339,-8,14,-100,-106,-265,-181
81,380,299,-230,-109,340,-8,14,-100,-106,-264,-181
81,381,300,-231,-109,341,-10,12,-103,-107,-266,-183
82,381,299,-231,-108,340,-12,12,-104,-107,-267,-184
82,381,299,-231,-108,340,-12,12,-104,-107,-268,-185
82,381,299,-231,-108,340,-12,13,-103,-107,-268,-184
83,380,297,-231,-107,339,-11,15,-102,-107,-268,-183
83,379,296,-231,-106,338,-10,15,-101,-108,-269,-183
83,378,295,-230,-106,337,-9,17,-99,-109,-269,-182
83,378,295,-230,-106,337,-9,16,-100,-111,-271,-182
83,378,295,-230,-106,337,-10,16,-102,-111,-273,-184
82,378,296,-230,-107,337,-11,15,-104,-111,-274,-185
81,378,297,-229,-108,338,-12,13,-106,-112,-275,-186
81,378,297,-229,-108,338,-14,11,-107,-112,-276,-188
82,378,296,-230,-107,337,-14,12,-107,-113,-276,-189
82,378,296,-230,-107,337,-13,13,-106,-113,-276,-189
82,377,295,-229,-106,336,-12,14,-103,-113,-276,-188
81,375,294,-228,-106,335,-10,15,-100,-112,-275,-187
81,374,293,-227,-106,334,-9,16,-97,-111,-275,-185
81,374,293,-227,-106,334,-9,16,-97,-112,-277,-186
81,374,293,-227,-106,334,-10,14,-99,-113,-279,-188
81,374,293,-227,-106,334,-11,13,-101,-115,-280,-190
81,375,294,-228,-106,335,-14,10,-105,-118,-283,-193
81,375,294,-228,-106,335,-15,9,-108,-120,-283,-194
81,375,294,-228,-106,335,-15,8,-111,-122,-284,-194
81,374,293,-227,-106,334,-14,9,-110,-123,-284,-194
81,373,292,-227,-105,333,-14,9,-109,-124,-284,-193
81,371,290,-226,-104,331,-12,11,-106,-124,-284,-191
81,370,289,-225,-104,330,-12,11,-105,-125,-285,-191
80,369,289,-224,-104,329,-11,11,-105,-126,-287,-191
79,369,290,-224,-105,330,-12,10,-107,-127,-289,-193
78,369,291,-223,-106,330,-14,8,-109,-128,-291,-196
78,369,291,-223,-106,330,-16,6,-112,-130,-292,-197
78,369,291,-223,-106,330,-18,4,-115,-132,-293,-198
78,369,291,-223,-106,330,-18,2,-116,-134,-295,-198
78,368,290,-223,-106,329,-18,3,-116,-135,-294,-198
78,366,288,-222,-105,327,-18,3,-116,-137,-295,-198
79,365,286,-222,-103,326,-17,3,-117,-139,-297,-197
79,364,285,-221,-103,325,-16,4,-118,-142,-299,-197
79,363,284,-221,-102,324,-17,2,-119,-145,-302,-198
"
		78","
		363","
		285","
		-220","
		-103","
		324","
		-18","
		0","
		-122","
		-147","
		-304","
		-200"
78,363,285,-220,-103,324,-20,-3,-124,-149,-307,-202
77,364,287,-220,-105,326,-23,-6,-127,-152,-309,-205
75,363,288,-219,-106,326,-25,-8,-129,-154,-310,-205
75,363,288,-219,-106,326,-26,-10,-131,-157,-313,-206
76,362,286,-219,-105,324,-26,-12,-133,-161,-315,-207
76,360,284,-218,-104,322,-25,-12,-134,-163,-316,-206
76,359,283,-217,-103,321,-25,-13,-136,-166,-319,-207
75,357,282,-216,-103,320,-24,-13,-137,-169,-322,-207
75,356,281,-215,-103,319,-24,-14,-139,-172,-324,-208
74,355,281,-214,-103,318,-26,-17,-142,-175,-327,-210
74,355,281,-214,-103,318,-29,-21,-146,-179,-330,-213
73,356,283,-214,-105,320,-31,-25,-150,-184,-333,-215
73,355,282,-214,-104,319,-32,-27,-154,-187,-334,-216
73,354,281,-213,-104,318,-34,-29,-156,-191,-337,-217
74,353,279,-213,-102,316,-34,-31,-157,-195,-339,-218
74,351,277,-212,-101,314,-33,-31,-158,-197,-341,-217
73,350,277,-211,-102,314,-34,-32,-160,-200,-345,-217
73,348,275,-210,-101,312,-33,-33,-161,-203,-348,-217
72,347,275,-209,-101,311,-34,-35,-163,-208,-351,-218
72,346,274,-209,-101,310,-36,-38,-167,-212,-355,-220
72,347,275,-209,-101,311,-39,-42,-171,-216,-358,-223
71,347,276,-209,-102,312,-41,-46,-176,-220,-360,-225
71,347,276,-209,-102,312,-42,-49,-179,-223,-362,-226
72,347,275,-209,-101,311,-44,-51,-182,-226,-365,-226
73,345,272,-209,-99,309,-44,-52,-184,-229,-366,-227
74,344,270,-209,-98,307,-44,-53,-185,-231,-368,-227
74,342,268,-208,-97,305,-43,-52,-185,-232,-370,-226
75,341,266,-208,-95,304,-44,-52,-185,-234,-373,-226
77,341,264,-209,-93,303,-45,-54,-186,-236,-376,-227
77,341,264,-209,-93,303,-45,-55,-186,-238,-378,-229
78,341,263,-209,-92,302,-47,-56,-187,-238,-379,-231
77,341,264,-209,-93,303,-47,-57,-187,-238,-380,-233
76,341,265,-208,-94,303,-47,-57,-187,-236,-381,-233
75,341,266,-208,-95,304,-46,-54,-185,-233,-380,-232
78,340,262,-209,-92,301,-45,-52,-183,-231,-380,-232
80,339,259,-209,-89,299,-43,-49,-180,-228,-378,-231
82,338,256,-210,-87,297,-42,-47,-176,-226,-379,-230
82,338,256,-210,-87,297,-40,-43,-172,-223,-379,-229
83,339,256,-211,-86,298,-38,-41,-167,-220,-377,-228
84,341,257,-212,-86,299,-38,-39,-166,-218,-375,-228
85,342,257,-213,-86,300,-38,-39,-166,-216,-374,-228
85,344,259,-214,-87,302,-39,-39,-166,-213,-373,-228
85,346,261,-215,-88,304,-37,-38,-164,-208,-368,-227
85,348,263,-216,-89,306,-36,-36,-163,-204,-364,-226
85,349,264,-217,-89,307,-34,-32,-160,-201,-360,-223
86,350,264,-218,-89,307,-32,-30,-158,-199,-357,-220
86,350,264,-218,-89,307,-28,-27,-155,-195,-352,-217
86,350,264,-218,-89,307,-25,-24,-152,-192,-348,-214
86,353,267,-219,-90,310,-24,-22,-150,-189,-345,-211
87,356,269,-221,-91,313,-23,-22,-150,-187,-341,-209
87,359,272,-223,-92,316,-23,-22,-153,-186,-337,-208
86,363,277,-224,-95,320,-23,-23,-156,-185,-333,-207
86,365,279,-225,-96,322,-23,-23,-158,-183,-329,-206
86,368,282,-227,-98,325,-22,-23,-159,-181,-324,-203
86,370,284,-228,-99,327,-20,-23,-159,-180,-319,-200
87,372,285,-229,-99,329,-19,-23,-159,-178,-315,-197
87,373,286,-230,-99,330,-16,-21,-158,-174,-310,-192
88,374,286,-231,-99,330,-14,-21,-159,-173,-306,-189
88,376,288,-232,-100,332,-12,-20,-159,-172,-301,-185
87,379,292,-233,-102,336,-13,-23,-163,-172,-297,-185
85,381,296,-233,-105,339,-14,-25,-166,-170,-295,-184
85,384,299,-234,-107,342,-16,-26,-170,-170,-292,-184
85,388,303,-236,-109,346,-16,-28,-173,-170,-288,-182
84,389,305,-236,-110,347,-16,-29,-175,-169,-283,-179
84,390,306,-237,-111,348,-17,-31,-176,-168,-280,-178
84,390,306,-237,-111,348,-15,-30,-176,-166,-275,-175
85,392,307,-238,-111,350,-14,-30,-176,-164,-272,-172
85,393,308,-239,-111,351,-12,-30,-176,-161,-269,-168
85,393,308,-239,-111,351,-12,-31,-177,-160,-265,-166
84,395,311,-239,-113,353,-12,-32,-179,-159,-261,-165
84,397,313,-240,-114,355,-14,-34,-181,-160,-260,-166
84,399,315,-241,-115,357,-17,-36,-184,-160,-258,-166
84,400,316,-242,-116,358,-17,-37,-185,-158,-255,-165
84,401,317,-242,-116,359,-17,-38,-185,-155,-251,-163
85,402,317,-243,-116,360,-17,-38,-185,-156,-249,-162
86,402,316,-244,-115,359,-14,-37,-184,-155,-245,-159
86,403,317,-244,-115,360,-14,-37,-185,-154,-244,-158
86,403,317,-244,-115,360,-14,-36,-185,-152,-243,-157
85,403,318,-244,-116,361,-13,-35,-184,-149,-240,-155
84,404,320,-244,-118,362,-14,-35,-185,-147,-239,-155
84,405,321,-244,-118,363,-16,-37,-186,-146,-239,-156
84,406,322,-245,-119,364,-17,-38,-187,-144,-237,-156
84,407,323,-245,-119,365,-18,-39,-187,-143,-235,-156
84,408,324,-246,-120,366,-19,-39,-188,-144,-235,-157
83,408,325,-245,-121,367,-17,-37,-185,-142,-233,-154
83,408,325,-245,-121,367,-16,-36,-183,-139,-231,-153
84,407,323,-245,-119,365,-15,-35,-183,-138,-231,-153
85,406,321,-245,-118,364,-15,-35,-183,-139,-232,-153
85,405,320,-245,-117,363,-15,-35,-183,-141,-232,-152
85,406,321,-245,-118,364,-14,-36,-183,-141,-232,-152
85,408,323,-246,-119,366,-16,-37,-185,-142,-232,-153
84,409,325,-246,-120,367,-18,-37,-186,-142,-231,-154
83,410,327,-246,-122,369,-18,-37,-186,-142,-229,-154
85,411,326,-248,-120,369,-18,-38,-186,-142,-229,-155
86,410,324,-248,-119,367,-18,-37,-185,-141,-229,-154
84,409,325,-246,-120,367,-16,-36,-183,-139,-229,-152
83,407,324,-245,-120,366,-14,-34,-181,-138,-230,-150
85,406,321,-245,-118,364,-13,-33,-179,-136,-231,-150
85,405,320,-245,-117,363,-13,-33,-179,-135,-230,-151
83,405,322,-244,-119,364,-13,-33,-180,-135,-231,-152
84,405,321,-244,-118,363,-16,-36,-182,-138,-234,-155
84,407,323,-245,-119,365,-17,-36,-183,-137,-233,-156
84,409,325,-246,-120,367,-18,-37,-184,-138,-234,-156
84,409,325,-246,-120,367,-18,-38,-184,-138,-234,-155
83,408,325,-245,-121,367,-17,-37,-184,-137,-233,-153
84,406,322,-245,-119,364,-17,-36,-183,-137,-233,-153
84,405,321,-244,-118,363,-14,-34,-181,-137,-233,-152
85,405,320,-245,-117,363,-12,-33,-179,-136,-234,-152
85,404,319,-244,-117,362,-13,-32,-178,-136,-236,-151
85,404,319,-244,-117,362,-14,-33,-178,-137,-236,-152
84,406,322,-245,-119,364,-15,-33,-179,-137,-236,-153
84,407,323,-245,-119,365,-16,-34,-181,-138,-236,-155
84,408,324,-246,-120,366,-17,-36,-183,-140,-238,-156
85,408,323,-246,-119,366,-17,-36,-183,-140,-238,-156
85,407,322,-246,-118,365,-16,-36,-182,-140,-238,-155
85,406,321,-245,-118,364,-14,-34,-180,-139,-237,-154
85,404,319,-244,-117,362,-13,-33,-179,-139,-238,-153
85,403,318,-244,-116,361,-12,-32,-178,-138,-238,-153
85,403,318,-244,-116,361,-12,-33,-178,-139,-239,-155
84,403,319,-243,-117,361,-12,-33,-179,-141,-239,-154
84,404,320,-244,-118,362,-13,-34,-181,-142,-239,-154
84,405,321,-244,-118,363,-15,-36,-184,-144,-240,-156
83,406,323,-244,-120,365,-16,-36,-185,-144,-240,-157
83,406,323,-244,-120,365,-15,-36,-186,-143,-240,-157
83,405,322,-244,-119,364,-14,-34,-184,-141,-239,-155
84,404,320,-244,-118,362,-13,-33,-184,-141,-239,-154
84,403,319,-243,-117,361,-12,-33,-182,-141,-239,-154
85,402,317,-243,-116,360,-12,-32,-181,-142,-239,-153
84,401,317,-242,-116,359,-12,-32,-180,-141,-239,-153
84,402,318,-243,-117,360,-14,-34,-181,-141,-240,-155
83,403,320,-243,-118,362,-15,-35,-183,-141,-241,-155
83,404,321,-243,-119,363,-16,-36,-184,-142,-241,-156
83,404,321,-243,-119,363,-17,-36,-185,-144,-241,-157
84,404,320,-244,-118,362,-16,-37,-186,-145,-241,-157
84,404,320,-244,-118,362,-16,-37,-186,-145,-240,-156
84,403,319,-243,-117,361,-15,-36,-184,-144,-239,-155
84,402,318,-243,-117,360,-13,-35,-183,-143,-238,-154
83,402,319,-242,-118,361,-11,-33,-182,-142,-238,-153
83,401,318,-242,-117,360,-12,-34,-183,-144,-239,-153
83,401,318,-242,-117,360,-14,-35,-185,-145,-239,-154
83,402,319,-242,-118,361,-15,-36,-187,-146,-239,-155
83,403,320,-243,-118,362,-17,-38,-189,-147,-239,-157
82,404,322,-243,-120,363,-17,-38,-189,-147,-239,-157
82,404,322,-243,-120,363,-16,-38,-189,-147,-238,-156
83,403,320,-243,-118,362,-15,-37,-188,-147,-238,-156
83,402,319,-242,-118,361,-14,-35,-187,-146,-237,-155
84,401,317,-242,-116,359,-13,-35,-186,-146,-237,-154
84,401,317,-242,-116,359,-12,-34,-186,-146,-236,-154
85,401,316,-243,-115,359,-13,-36,-187,-147,-236,-154
85,401,316,-243,-115,359,-14,-36,-187,-147,-236,-154
85,402,317,-243,-116,360,-15,-37,-189,-147,-236,-154
84,404,320,-244,-118,362,-16,-38,-190,-147,-236,-155
83,404,321,-243,-119,363,-17,-39,-192,-148,-236,-156
84,405,321,-244,-118,363,-18,-41,-193,-149,-237,-158
84,404,320,-244,-118,362,-17,-39,-192,-149,-236,-157
85,403,318,-244,-116,361,-15,-39,-192,-148,-235,-156
85,402,317,-243,-116,360,-14,-38,-191,-147,-235,-155
84,401,317,-242,-116,359,-13,-36,-190,-147,-234,-153
84,401,317,-242,-116,359,-13,-36,-190,-148,-235,-153
83,401,318,-242,-117,360,-14,-37,-190,-148,-235,-153
84,403,319,-243,-117,361,-15,-38,-191,-148,-235,-155
84,404,320,-244,-118,362,-17,-39,-192,-147,-234,-156
84,405,321,-244,-118,363,-19,-41,-194,-150,-234,-158
84,405,321,-244,-118,363,-19,-41,-194,-150,-234,-157
84,404,320,-244,-118,362,-17,-39,-192,-148,-233,-155
84,404,320,-244,-118,362,-15,-38,-192,-147,-233,-154
84,403,319,-243,-117,361,-14,-38,-192,-147,-232,-153
84,402,318,-243,-117,360,-13,-38,-192,-148,-232,-152
84,402,318,-243,-117,360,-13,-38,-192,-148,-233,-153
85,402,317,-243,-116,360,-14,-38,-193,-149,-234,-154
84,403,319,-243,-117,361,-15,-39,-195,-150,-234,-154
84,404,320,-244,-118,362,-16,-40,-196,-151,-234,-156
83,405,322,-244,-119,364,-17,-41,-197,-151,-233,-157
84,405,321,-244,-118,363,-18,-42,-197,-151,-234,-158
84,405,321,-244,-118,363,-17,-41,-195,-151,-234,-157
84,404,320,-244,-118,362,-15,-39,-192,-151,-233,-154
84,403,319,-243,-117,361,-14,-39,-192,-151,-233,-153
84,403,319,-243,-117,361,-14,-38,-192,-151,-234,-153
84,403,319,-243,-117,361,-14,-39,-193,-151,-235,-153
85,403,318,-244,-116,361,-14,-39,-194,-150,-234,-154
85,404,319,-244,-117,362,-16,-42,-197,-151,-235,-155
85,405,320,-245,-117,363,-16,-43,-199,-151,-234,-155
85,406,321,-245,-118,364,-17,-43,-200,-151,-235,-155
85,406,321,-245,-118,364,-17,-43,-200,-150,-235,-156
85,405,320,-245,-117,363,-17,-42,-199,-150,-235,-156
84,405,321,-244,-118,363,-16,-42,-197,-150,-234,-155
83,404,321,-243,-119,363,-14,-39,-195,-149,-233,-152
84,403,319,-243,-117,361,-13,-38,-193,-148,-233,-152
85,402,317,-243,-116,360,-13,-39,-192,-148,-234,-152
84,403,319,-243,-117,361,-13,-40,-194,-149,-235,-153
82,405,323,-243,-120,364,-14,-40,-195,-150,-236,-154
82,406,324,-244,-121,365,-15,-41,-196,-149,-235,-153
83,407,324,-245,-120,366,-16,-43,-197,-150,-235,-154
83,407,324,-245,-120,366,-17,-43,-197,-151,-235,-155
84,406,322,-245,-119,364,-17,-43,-197,-151,-235,-156
84,405,321,-244,-118,363,-16,-42,-197,-151,-235,-155
84,404,320,-244,-118,362,-15,-41,-196,-151,-234,-154
84,403,319,-243,-117,361,-14,-40,-196,-151,-234,-153
84,404,320,-244,-118,362,-14,-40,-196,-151,-235,-153
83,405,322,-244,-119,364,-14,-40,-197,-151,-235,-154
83,406,323,-244,-120,365,-15,-42,-199,-151,-236,-155
83,407,324,-245,-120,366,-16,-43,-200,-152,-236,-155
83,407,324,-245,-120,366,-17,-44,-201,-153,-236,-154
83,408,325,-245,-121,367,-18,-45,-201,-154,-236,-155
84,407,323,-245,-119,365,-17,-43,-200,-154,-235,-155
84,407,323,-245,-119,365,-16,-43,-198,-153,-235,-154
85,405,320,-245,-117,363,-14,-42,-197,-152,-235,-153
84,404,320,-244,-118,362,-13,-40,-195,-151,-235,-153
83,404,321,-243,-119,363,-13,-39,-194,-152,-236,-154
82,405,323,-243,-120,364,-14,-40,-195,-152,-236,-153
82,406,324,-244,-121,365,-15,-41,-197,-152,-236,-153
82,407,325,-244,-121,366,-17,-43,-199,-153,-237,-154
82,409,327,-245,-122,368,-17,-44,-201,-153,-237,-154
82,409,327,-245,-122,368,-18,-44,-201,-153,-238,-155
82,408,326,-245,-122,367,-17,-44,-202,-153,-237,-156
82,406,324,-244,-121,365,-15,-42,-200,-153,-236,-154
82,404,322,-243,-120,363,-15,-41,-199,-153,-236,-153
82,403,321,-242,-119,362,-13,-40,-197,-153,-235,-151
83,404,321,-243,-119,363,-13,-41,-197,-154,-237,-152
83,405,322,-244,-119,364,-14,-42,-198,-154,-236,-153
83,406,323,-244,-120,365,-16,-43,-201,-155,-237,-154
83,407,324,-245,-120,366,-17,-44,-202,-154,-237,-155
83,408,325,-245,-121,367,-18,-45,-203,-155,-237,-155
82,408,326,-245,-122,367,-19,-45,-203,-155,-237,-155
82,407,325,-244,-121,366,-17,-44,-202,-155,-236,-155
81,406,325,-243,-122,366,-15,-42,-199,-152,-234,-153
83,405,322,-244,-119,364,-13,-41,-198,-151,-234,-152
84,404,320,-244,-118,362,-13,-41,-197,-150,-234,-152
84,403,319,-243,-117,361,-13,-41,-196,-150,-234,-152
84,403,319,-243,-117,361,-14,-42,-197,-150,-234,-153
83,404,321,-243,-119,363,-15,-43,-198,-150,-234,-153
83,406,323,-244,-120,365,-17,-45,-201,-152,-235,-154
83,408,325,-245,-121,367,-17,-46,-202,-152,-233,-154
84,408,324,-246,-120,366,-19,-46,-204,-153,-234,-155
84,407,323,-245,-119,365,-18,-45,-202,-153,-233,-154
84,406,322,-245,-119,364,-16,-44,-201,-154,-233,-153
85,404,319,-244,-117,362,-15,-43,-200,-154,-234,-153
85,402,317,-243,-116,360,-13,-42,-198,-153,-233,-152
84,403,319,-243,-117,361,-13,-42,-198,-153,-232,-152
83,404,321,-243,-119,363,-13,-42,-199,-152,-232,-152
83,406,323,-244,-120,365,-15,-44,-201,-153,-233,-153
84,407,323,-245,-119,365,-16,-45,-203,-152,-233,-154
84,407,323,-245,-119,365,-17,-46,-204,-152,-232,-155
83,407,324,-245,-120,366,-17,-45,-204,-152,-232,-155
83,407,324,-245,-120,366,-17,-44,-203,-152,-232,-155
84,406,322,-245,-119,364,-16,-43,-202,-152,-232,-154
85,405,320,-245,-117,363,-15,-43,-201,-152,-233,-153
85,404,319,-244,-117,362,-15,-43,-200,-152,-233,-153
86,404,318,-245,-116,361,-14,-43,-199,-152,-233,-153
85,404,319,-244,-117,362,-14,-43,-200,-152,-233,-153
84,405,321,-244,-118,363,-16,-44,-201,-152,-233,-154
84,406,322,-245,-119,364,-17,-45,-202,-152,-233,-154
84,407,323,-245,-119,365,-17,-46,-202,-152,-233,-154
84,407,323,-245,-119,365,-17,-46,-203,-152,-232,-154
83,407,324,-245,-120,366,-17,-45,-203,-151,-231,-154
83,406,323,-244,-120,365,-16,-45,-203,-151,-231,-153
83,405,322,-244,-119,364,-14,-44,-201,-149,-230,-152
83,404,321,-243,-119,363,-13,-44,-201,-149,-230,-152
83,403,320,-243,-118,362,-13,-44,-202,-149,-231,-152
82,404,322,-243,-120,363,-14,-44,-202,-150,-232,-152
82,405,323,-243,-120,364,-15,-44,-201,-150,-232,-152
82,406,324,-244,-121,365,-16,-44,-200,-150,-231,-152
81,408,327,-244,-123,368,-17,-45,-201,-151,-232,-153
81,408,327,-244,-123,368,-17,-44,-201,-151,-231,-153
82,408,326,-245,-122,367,-17,-44,-201,-152,-231,-153
83,406,323,-244,-120,365,-17,-44,-202,-153,-231,-154
82,405,323,-243,-120,364,-14,-42,-201,-152,-231,-152
80,404,324,-242,-122,364,-12,-41,-200,-152,-230,-150
80,404,324,-242,-122,364,-12,-41,-199,-152,-230,-150
81,404,323,-242,-121,364,-13,-41,-199,-152,-230,-151
82,405,323,-243,-120,364,-16,-43,-201,-153,-232,-154
83,407,324,-245,-120,366,-18,-45,-202,-154,-232,-156
85,408,323,-246,-119,366,-19,-46,-205,-155,-232,-155
86,409,323,-247,-118,366,-20,-47,-207,-156,-233,-155
85,408,323,-246,-119,366,-18,-46,-205,-154,-233,-153
83,406,323,-244,-120,365,-16,-45,-203,-153,-232,-153
84,405,321,-244,-118,363,-15,-45,-202,-154,-231,-153
85,404,319,-244,-117,362,-14,-44,-202,-154,-231,-153
86,404,318,-245,-116,361,-14,-43,-202,-154,-232,-153
85,405,320,-245,-117,363,-13,-43,-202,-153,-232,-152
85,406,321,-245,-118,364,-14,-44,-203,-153,-232,-152
84,407,323,-245,-119,365,-16,-45,-203,-154,-233,-153
83,408,325,-245,-121,367,-18,-47,-205,-155,-234,-155
84,409,325,-246,-120,367,-19,-48,-205,-154,-232,-155
84,409,325,-246,-120,367,-17,-47,-204,-153,-230,-154
85,408,323,-246,-119,366,-17,-47,-203,-153,-231,-153
85,406,321,-245,-118,364,-16,-46,-202,-153,-231,-151
85,405,320,-245,-117,363,-15,-46,-202,-153,-231,-151
85,405,320,-245,-117,363,-15,-45,-202,-152,-231,-151
85,405,320,-245,-117,363,-15,-45,-203,-151,-231,-152
85,407,322,-246,-118,365,-18,-46,-205,-152,-231,-153
84,408,324,-246,-120,366,-18,-47,-206,-152,-231,-153
84,408,324,-246,-120,366,-18,-48,-207,-153,-231,-153
84,408,324,-246,-120,366,-19,-48,-207,-153,-232,-154
84,408,324,-246,-120,366,-19,-48,-206,-153,-233,-153
85,407,322,-246,-118,365,-18,-47,-204,-153,-233,-152
85,406,321,-245,-118,364,-15,-45,-201,-153,-232,-151
85,405,320,-245,-117,363,-15,-44,-199,-153,-232,-151
84,405,321,-244,-118,363,-15,-44,-200,-153,-232,-151
"
		84","
		405","
		321","
		-244","
		-118","
		363","
		-15","
		-44","
		-201","
		-153","
		-232","
		-152"
84,406,322,-245,-119,364,-16,-46,-202,-153,-232,-152
84,407,323,-245,-119,365,-18,-47,-204,-153,-232,-152
83,408,325,-245,-121,367,-19,-47,-206,-153,-232,-152
82,408,326,-245,-122,367,-19,-47,-206,-153,-232,-151
82,408,326,-245,-122,367,-18,-47,-205,-153,-231,-151
83,407,324,-245,-120,366,-17,-46,-205,-153,-230,-151
83,406,323,-244,-120,365,-16,-45,-204,-153,-231,-151
84,405,321,-244,-118,363,-15,-44,-203,-153,-232,-150
84,405,321,-244,-118,363,-14,-45,-203,-154,-233,-150
85,405,320,-245,-117,363,-15,-45,-203,-154,-233,-151
85,406,321,-245,-118,364,-16,-46,-203,-154,-232,-151
85,408,323,-246,-119,366,-18,-48,-204,-154,-233,-153
85,409,324,-247,-119,367,-18,-48,-204,-154,-233,-154
85,409,324,-247,-119,367,-18,-48,-205,-155,-232,-154
85,408,323,-246,-119,366,-18,-48,-205,-155,-231,-152
85,407,322,-246,-118,365,-18,-47,-206,-155,-231,-152
85,405,320,-245,-117,363,-17,-46,-204,-154,-231,-151
84,403,319,-243,-117,361,-15,-45,-203,-153,-231,-151
85,403,318,-244,-116,361,-14,-45,-202,-153,-231,-150
85,403,318,-244,-116,361,-14,-45,-202,-154,-231,-150
85,404,319,-244,-117,362,-17,-47,-204,-156,-232,-152
84,406,322,-245,-119,364,-18,-48,-205,-156,-231,-152
84,408,324,-246,-120,366,-20,-49,-207,-156,-231,-153
84,408,324,-246,-120,366,-20,-49,-208,-156,-231,-152
84,407,323,-245,-119,365,-18,-47,-206,-155,-230,-151
85,406,321,-245,-118,364,-17,-46,-205,-154,-230,-151
85,404,319,-244,-117,362,-15,-45,-204,-154,-230,-151
86,403,317,-244,-115,360,-15,-44,-203,-154,-230,-151
86,403,317,-244,-115,360,-15,-45,-202,-154,-231,-151
86,404,318,-245,-116,361,-15,-45,-202,-154,-231,-151
86,405,319,-245,-116,362,-15,-47,-203,-154,-230,-150
86,407,321,-246,-117,364,-17,-49,-206,-156,-231,-152
85,408,323,-246,-119,366,-18,-49,-207,-155,-230,-153
83,408,325,-245,-121,367,-17,-48,-206,-153,-229,-152
84,407,323,-245,-119,365,-18,-48,-206,-153,-229,-151
85,406,321,-245,-118,364,-18,-48,-205,-153,-229,-151
86,404,318,-245,-116,361,-16,-46,-203,-152,-229,-150
87,404,317,-245,-115,361,-15,-45,-201,-152,-229,-150
87,405,318,-246,-115,362,-16,-46,-202,-152,-230,-150
86,406,320,-246,-117,363,-17,-46,-203,-152,-230,-151
85,407,322,-246,-118,365,-18,-48,-204,-152,-230,-151
84,408,324,-246,-120,366,-19,-49,-205,-153,-230,-152
84,408,324,-246,-120,366,-20,-49,-206,-154,-229,-152
84,409,325,-246,-120,367,-18,-48,-206,-155,-229,-153
85,409,324,-247,-119,367,-16,-46,-205,-154,-229,-153
86,408,322,-247,-118,365,-14,-44,-203,-152,-228,-151
87,406,319,-246,-116,363,-12,-42,-201,-150,-228,-150
88,404,316,-246,-114,360,-11,-40,-200,-149,-228,-149
88,402,314,-245,-113,358,-10,-38,-198,-148,-228,-149
88,401,313,-244,-112,357,-10,-37,-197,-148,-228,-149
89,403,314,-246,-112,359,-11,-38,-196,-147,-228,-150
91,405,314,-248,-111,360,-11,-37,-194,-145,-227,-150
92,407,315,-249,-111,361,-11,-36,-193,-144,-226,-150
93,408,315,-250,-111,362,-10,-34,-192,-143,-225,-150
95,408,313,-251,-109,361,-8,-31,-189,-140,-223,-148
97,407,310,-252,-106,359,-6,-27,-186,-139,-222,-147
98,406,308,-252,-105,357,-3,-22,-183,-137,-221,-146
99,405,306,-252,-103,356,-2,-21,-182,-136,-221,-144
99,406,307,-252,-104,357,-4,-21,-183,-135,-221,-143
99,407,308,-253,-104,358,-5,-22,-184,-136,-221,-143
99,408,309,-253,-105,359,-6,-23,-185,-137,-222,-144
98,409,311,-253,-106,360,-7,-23,-186,-138,-222,-146
98,410,312,-254,-107,361,-5,-23,-186,-139,-222,-147
98,410,312,-254,-107,361,-4,-23,-186,-139,-222,-147
99,410,311,-254,-106,361,-3,-23,-186,-139,-222,-147
100,409,309,-254,-104,359,-4,-22,-186,-139,-221,-146
100,408,308,-254,-104,358,-6,-21,-186,-139,-222,-146
101,405,304,-253,-101,355,-8,-20,-186,-138,-222,-145
102,403,301,-252,-99,352,-11,-21,-187,-139,-223,-146
102,404,302,-253,-100,353,-16,-23,-188,-140,-224,-147
102,407,305,-254,-101,356,-21,-28,-192,-142,-224,-148
99,410,311,-254,-106,361,-25,-34,-197,-144,-224,-148
96,411,315,-253,-109,363,-25,-41,-202,-147,-225,-149
95,410,315,-252,-110,363,-24,-46,-206,-149,-226,-150
94,408,314,-251,-110,361,-22,-48,-208,-149,-225,-149
94,407,313,-250,-109,360,-21,-48,-207,-150,-225,-148
94,406,312,-250,-109,359,-19,-46,-204,-149,-223,-146
94,405,311,-249,-108,358,-18,-45,-204,-151,-225,-147
93,403,310,-248,-108,357,-18,-46,-205,-154,-227,-147
93,402,309,-247,-108,356,-19,-46,-207,-155,-228,-149
94,402,308,-248,-107,355,-20,-47,-209,-154,-229,-150
95,403,308,-249,-106,356,-23,-48,-210,-154,-230,-151
96,405,309,-250,-106,357,-24,-48,-211,-153,-229,-152
96,407,311,-251,-107,359,-24,-48,-211,-153,-226,-151
95,407,312,-251,-108,360,-24,-49,-211,-153,-227,-151
94,405,311,-249,-108,358,-24,-49,-210,-154,-227,-150
93,404,311,-248,-109,358,-22,-49,-209,-153,-227,-149
94,403,309,-248,-107,356,-21,-49,-209,-153,-228,-149
94,403,309,-248,-107,356,-21,-49,-209,-153,-228,-148
92,405,313,-248,-110,359,-21,-50,-210,-153,-227,-148
91,406,315,-248,-112,361,-21,-52,-211,-153,-228,-150
90,406,316,-248,-113,361,-22,-53,-212,-154,-230,-152
88,407,319,-247,-115,363,-23,-54,-214,-156,-231,-154
86,407,321,-246,-117,364,-22,-53,-214,-156,-231,-155
85,405,320,-245,-117,363,-20,-51,-214,-156,-231,-155
84,404,320,-244,-118,362,-17,-49,-211,-154,-229,-153
84,403,319,-243,-117,361,-17,-48,-208,-154,-228,-152
83,403,320,-243,-118,362,-16,-49,-208,-154,-230,-152
84,402,318,-243,-117,360,-16,-50,-209,-155,-232,-152
84,402,318,-243,-117,360,-16,-51,-211,-156,-233,-153
84,403,319,-243,-117,361,-18,-52,-212,-157,-232,-153
84,405,321,-244,-118,363,-20,-53,-214,-158,-233,-154
85,407,322,-246,-118,365,-21,-54,-216,-158,-233,-155
84,408,324,-246,-120,366,-21,-54,-216,-158,-232,-155
84,406,322,-245,-119,364,-20,-53,-215,-157,-231,-154
83,404,321,-243,-119,363,-18,-51,-213,-156,-231,-153
83,403,320,-243,-118,362,-16,-50,-212,-156,-231,-152
83,402,319,-242,-118,361,-14,-49,-210,-155,-231,-151
84,402,318,-243,-117,360,-15,-49,-210,-156,-232,-152
84,403,319,-243,-117,361,-15,-49,-209,-156,-232,-152
84,405,321,-244,-118,363,-17,-50,-211,-157,-232,-153
84,407,323,-245,-119,365,-18,-51,-212,-157,-232,-154
84,408,324,-246,-120,366,-20,-53,-214,-158,-232,-155
84,408,324,-246,-120,366,-20,-53,-215,-158,-232,-155
85,407,322,-246,-118,365,-19,-53,-214,-157,-232,-155
85,406,321,-245,-118,364,-17,-51,-212,-156,-231,-154
85,404,319,-244,-117,362,-17,-50,-211,-156,-232,-154
84,403,319,-243,-117,361,-15,-50,-209,-155,-231,-152
83,403,320,-243,-118,362,-15,-50,-209,-155,-232,-152
83,404,321,-243,-119,363,-15,-50,-209,-156,-232,-152
82,405,323,-243,-120,364,-16,-50,-210,-156,-232,-153
83,406,323,-244,-120,365,-18,-52,-213,-157,-233,-154
84,407,323,-245,-119,365,-19,-52,-213,-156,-232,-154
85,408,323,-246,-119,366,-20,-53,-213,-156,-231,-155
85,407,322,-246,-118,365,-19,-52,-212,-156,-231,-155
85,406,321,-245,-118,364,-17,-50,-209,-156,-230,-153
84,405,321,-244,-118,363,-16,-49,-208,-157,-230,-153
83,404,321,-243,-119,363,-14,-47,-205,-156,-229,-152
83,404,321,-243,-119,363,-13,-47,-206,-156,-230,-153
82,404,322,-243,-120,363,-14,-48,-208,-155,-231,-153
82,406,324,-244,-121,365,-15,-48,-208,-154,-231,-153
83,408,325,-245,-121,367,-17,-49,-210,-155,-231,-154
84,409,325,-246,-120,367,-19,-50,-212,-156,-230,-155
84,410,326,-247,-121,368,-19,-50,-212,-156,-229,-154
84,409,325,-246,-120,367,-18,-50,-211,-155,-228,-153
85,408,323,-246,-119,366,-17,-49,-210,-154,-228,-153
84,406,322,-245,-119,364,-15,-48,-208,-153,-228,-151
84,405,321,-244,-118,363,-14,-48,-207,-154,-229,-151
85,405,320,-245,-117,363,-14,-47,-206,-155,-229,-151
86,406,320,-246,-117,363,-15,-49,-207,-155,-230,-152
86,407,321,-246,-117,364,-16,-49,-207,-154,-230,-153
85,408,323,-246,-119,366,-17,-48,-206,-154,-230,-154
84,408,324,-246,-120,366,-15,-45,-205,-154,-231,-157
82,408,326,-245,-122,367,-10,-39,-200,-155,-231,-158
81,407,326,-244,-122,367,-5,-32,-192,-155,-232,-159
79,407,328,-243,-124,368,0,-24,-180,-153,-234,-160
78,408,330,-243,-126,369,8,-15,-162,-147,-235,-161
77,411,334,-244,-128,373,14,-6,-140,-136,-232,-159
78,419,341,-248,-131,380,16,-2,-117,-121,-226,-156
81,430,349,-255,-134,390,14,-2,-93,-100,-214,-148
85,444,359,-264,-137,402,10,-2,-66,-72,-199,-139
90,462,372,-276,-141,417,3,-1,-38,-39,-182,-128
101,481,380,-291,-139,431,-6,2,-10,3,-156,-111
119,502,383,-310,-132,443,-19,8,12,50,-122,-89
143,528,385,-335,-121,457,-36,12,23,97,-80,-58
166,564,398,-365,-116,481,-63,-13,2,143,-30,-19
185,609,424,-397,-119,517,-103,-88,-77,184,31,30
199,659,460,-429,-130,560,-154,-192,-213,212,95,83
210,709,499,-459,-144,604,-205,-295,-366,234,164,139
217,761,544,-489,-163,653,-256,-398,-516,258,235,194
222,808,586,-515,-182,697,-305,-510,-664,281,299,244
224,843,619,-533,-197,731,-349,-626,-816,279,346,283
225,857,632,-541,-203,745,-382,-725,-947,239,365,304
218,838,620,-528,-201,729,-393,-784,-1030,174,354,301
198,793,595,-495,-198,694,-378,-802,-1074,91,314,280
172,734,562,-453,-195,648,-349,-785,-1089,-24,248,244
150,670,520,-410,-185,595,-321,-739,-1077,-164,168,199
134,610,476,-372,-171,543,-303,-688,-1047,-304,90,152
121,561,440,-341,-159,501,-288,-631,-995,-405,23,112
114,519,405,-316,-145,462,-264,-552,-908,-455,-42,70
108,470,362,-289,-127,416,-220,-451,-797,-465,-115,16
100,417,317,-258,-108,367,-165,-358,-692,-443,-190,-50
93,373,280,-233,-93,327,-116,-282,-598,-387,-246,-107
94,347,253,-220,-79,300,-83,-218,-509,-321,-271,-142
101,341,240,-221,-69,291,-64,-161,-428,-266,-274,-156
107,348,241,-227,-67,295,-55,-123,-364,-227,-268,-159
109,361,252,-235,-71,307,-52,-102,-315,-196,-261,-156
108,373,265,-240,-78,319,-50,-84,-273,-168,-253,-155
108,387,279,-247,-85,333,-48,-69,-237,-146,-242,-150
107,401,294,-254,-93,348,-48,-60,-208,-127,-231,-144
105,408,303,-256,-99,356,-47,-53,-193,-118,-228,-145
101,406,305,-253,-102,356,-42,-46,-186,-116,-230,-151
97,404,307,-250,-105,356,-36,-40,-180,-114,-232,-155
96,405,309,-250,-106,357,-32,-33,-173,-111,-233,-159
95,403,308,-249,-106,356,-28,-26,-166,-110,-234,-161
95,400,305,-247,-105,353,-24,-22,-163,-112,-235,-162
94,398,304,-246,-105,351,-20,-18,-159,-112,-237,-162
93,396,303,-244,-105,350,-17,-14,-152,-112,-238,-162
92,394,302,-243,-105,348,-14,-11,-148,-112,-239,-162
92,393,301,-242,-104,347,-13,-9,-144,-112,-240,-163
91,393,302,-242,-105,348,-13,-7,-143,-113,-243,-166
91,394,303,-242,-106,349,-13,-7,-143,-113,-245,-169
90,395,305,-242,-107,350,-14,-8,-144,-114,-244,-171
90,396,306,-243,-108,351,-15,-8,-144,-114,-244,-171
91,396,305,-243,-107,351,-14,-7,-141,-113,-244,-170
91,396,305,-243,-107,351,-12,-5,-138,-112,-243,-169
91,394,303,-242,-106,349,-8,0,-134,-110,-242,-167
91,393,302,-242,-105,348,-7,3,-130,-110,-244,-167
90,391,301,-240,-105,346,-5,5,-127,-111,-244,-167
89,391,302,-240,-106,347,-5,6,-126,-111,-246,-169
88,392,304,-240,-108,348,-6,6,-126,-111,-247,-170
89,393,304,-241,-107,349,-7,4,-128,-111,-247,-171
89,394,305,-241,-108,350,-9,2,-130,-112,-247,-173
90,395,305,-242,-107,350,-9,2,-129,-110,-246,-173
90,395,305,-242,-107,350,-9,4,-127,-109,-246,-173
91,394,303,-242,-106,349,-8,6,-125,-108,-245,-172
91,393,302,-242,-105,348,-6,7,-123,-107,-245,-170
90,392,302,-241,-106,347,-3,10,-119,-106,-244,-169
89,391,302,-240,-106,347,-2,11,-118,-105,-245,-170
88,391,303,-239,-107,347,-2,11,-117,-105,-244,-170
88,391,303,-239,-107,347,-3,9,-118,-105,-246,-172
88,392,304,-240,-108,348,-6,7,-120,-107,-247,-174
89,394,305,-241,-108,350,-8,6,-121,-108,-247,-175
90,394,304,-242,-107,349,-9,7,-122,-107,-246,-175
90,394,304,-242,-107,349,-9,8,-121,-105,-245,-174
90,393,303,-241,-106,348,-7,10,-119,-104,-244,-172
90,392,302,-241,-106,347,-4,12,-116,-102,-242,-171
89,391,302,-240,-106,347,-3,13,-114,-101,-243,-171
90,390,300,-240,-105,345,-2,14,-113,-101,-244,-171
91,390,299,-240,-104,345,-3,14,-112,-102,-245,-172
91,390,299,-240,-104,345,-4,12,-114,-104,-245,-174
91,391,300,-241,-104,346,-6,11,-115,-105,-246,-175
91,393,302,-242,-105,348,-8,8,-117,-107,-246,-176
90,393,303,-241,-106,348,-9,8,-117,-105,-246,-176
88,392,304,-240,-108,348,-8,10,-114,-102,-245,-175
90,392,302,-241,-106,347,-6,11,-112,-99,-244,-174
91,392,301,-241,-105,347,-6,12,-111,-99,-245,-174
91,391,300,-241,-104,346,-4,14,-108,-98,-245,-172
90,390,300,-240,-105,345,-4,14,-107,-98,-246,-172
89,390,301,-239,-106,346,-3,15,-108,-98,-246,-172
89,390,301,-239,-106,346,-4,13,-110,-98,-247,-174
89,391,302,-240,-106,347,-7,11,-114,-100,-248,-176
88,392,304,-240,-108,348,-8,9,-115,-100,-248,-177
88,392,304,-240,-108,348,-8,10,-114,-100,-248,-177
89,393,304,-241,-107,349,-7,11,-112,-99,-247,-176
90,392,302,-241,-106,347,-6,13,-110,-98,-246,-175
90,391,301,-240,-105,346,-5,15,-107,-98,-247,-174
90,390,300,-240,-105,345,-4,16,-105,-98,-248,-174
91,388,297,-239,-103,343,-3,18,-104,-97,-249,-174
91,388,297,-239,-103,343,-3,16,-104,-98,-251,-176
91,389,298,-240,-103,344,-5,13,-106,-99,-252,-178
91,390,299,-240,-104,345,-7,12,-107,-100,-252,-179
91,391,300,-241,-104,346,-8,11,-108,-101,-251,-180
91,391,300,-241,-104,346,-8,12,-109,-101,-251,-180
91,391,300,-241,-104,346,-8,13,-109,-100,-252,-179
91,390,299,-240,-104,345,-7,14,-108,-100,-253,-178
91,389,298,-240,-103,344,-6,16,-106,-99,-252,-177
91,388,297,-239,-103,343,-4,18,-103,-98,-251,-175
91,387,296,-239,-102,342,-4,18,-103,-99,-253,-176
91,387,296,-239,-102,342,-4,17,-103,-101,-255,-178
91,388,297,-239,-103,343,-5,16,-104,-101,-257,-180
90,388,298,-239,-104,343,-6,16,-105,-101,-257,-182
89,389,300,-239,-105,345,-8,15,-106,-102,-258,-183
89,389,300,-239,-105,345,-9,16,-106,-102,-258,-183
90,389,299,-239,-104,344,-7,17,-104,-102,-257,-181
90,388,298,-239,-104,343,-6,18,-102,-102,-257,-180
90,387,297,-238,-103,342,-5,19,-101,-103,-258,-180
89,385,296,-237,-103,341,-3,21,-99,-104,-260,-180
90,384,294,-237,-102,339,-4,21,-99,-105,-262,-181
91,384,293,-237,-101,339,-5,20,-100,-106,-263,-182
91,384,293,-237,-101,339,-6,19,-101,-106,-265,-184
90,385,295,-237,-102,340,-7,18,-102,-106,-266,-185
90,386,296,-238,-103,341,-8,17,-103,-106,-266,-186
90,386,296,-238,-103,341,-9,17,-104,-106,-266,-186
89,385,296,-237,-103,341,-8,18,-105,-107,-266,-186
89,385,296,-237,-103,341,-7,19,-103,-107,-267,-185
90,384,294,-237,-102,339,-6,21,-102,-107,-268,-183
90,383,293,-236,-101,338,-4,23,-99,-107,-268,-183
90,381,291,-235,-100,336,-4,23,-99,-108,-269,-184
90,381,291,-235,-100,336,-4,22,-99,-108,-270,-185
90,382,292,-236,-101,337,-6,20,-100,-109,-271,-187
89,383,294,-236,-102,339,-7,19,-102,-110,-272,-188
89,384,295,-236,-103,340,-9,18,-103,-112,-273,-189
89,384,295,-236,-103,340,-10,18,-105,-113,-274,-189
89,383,294,-236,-102,339,-9,18,-106,-113,-274,-189
90,382,292,-236,-101,337,-7,19,-104,-113,-274,-189
90,380,290,-235,-100,335,-5,20,-102,-112,-274,-188
89,378,289,-233,-100,334,-4,21,-99,-112,-275,-188
88,376,288,-232,-100,332,-3,22,-98,-112,-275,-188
88,376,288,-232,-100,332,-4,21,-99,-114,-277,-189
88,377,289,-232,-100,333,-7,19,-101,-116,-280,-192
88,378,290,-233,-101,334,-8,18,-104,-118,-281,-194
88,379,291,-233,-101,335,-9,17,-106,-119,-281,-194
88,379,291,-233,-101,335,-9,16,-107,-120,-281,-194
88,379,291,-233,-101,335,-9,16,-108,-121,-281,-194
88,378,290,-233,-101,334,-9,17,-107,-123,-282,-193
88,376,288,-232,-100,332,-7,18,-105,-123,-283,-192
88,375,287,-231,-99,331,-6,18,-105,-124,-285,-192
88,373,285,-230,-98,329,-6,19,-104,-125,-286,-192
88,373,285,-230,-98,329,-7,17,-106,-128,-288,-194
86,373,287,-229,-100,330,-9,15,-109,-130,-290,-197
86,373,287,-229,-100,330,-11,12,-112,-132,-292,-199
87,374,287,-230,-100,331,-12,11,-115,-135,-293,-201
87,373,286,-230,-99,330,-13,10,-117,-137,-294,-202
86,373,287,-229,-100,330,-13,10,-116,-139,-295,-202
86,371,285,-228,-99,328,-12,11,-115,-140,-296,-200
86,370,284,-228,-99,327,-12,11,-115,-142,-298,-200
86,368,282,-227,-98,325,-10,12,-115,-142,-299,-200
86,367,281,-226,-97,324,-11,11,-115,-145,-302,-201
"
		85","
		367","
		282","
		-226","
		-98","
		325","
		-11","
		10","
		-116","
		-148","
		-304","
		-202"
85,367,282,-226,-98,325,-13,7,-119,-150,-306,-205
84,368,284,-226,-100,326,-15,5,-123,-153,-308,-207
83,368,285,-225,-101,327,-17,3,-126,-156,-310,-209
82,368,286,-225,-102,327,-18,1,-128,-159,-312,-210
82,368,286,-225,-102,327,-18,0,-129,-163,-313,-211
83,366,283,-224,-100,325,-17,1,-130,-165,-314,-210
83,364,281,-223,-99,323,-17,-1,-132,-169,-317,-209
82,361,279,-221,-98,320,-16,0,-131,-172,-319,-208
81,360,279,-220,-99,320,-17,-2,-133,-177,-323,-210
81,359,278,-220,-98,319,-18,-4,-134,-180,-325,-212
81,358,277,-219,-98,318,-20,-7,-138,-183,-329,-215
81,359,278,-220,-98,319,-22,-10,-142,-187,-332,-217
81,360,279,-220,-99,320,-25,-14,-147,-192,-336,-220
81,360,279,-220,-99,320,-26,-16,-150,-196,-338,-221
80,359,279,-219,-99,319,-26,-18,-151,-200,-340,-221
79,357,278,-218,-99,318,-26,-19,-152,-204,-342,-221
80,354,274,-217,-97,314,-25,-19,-153,-208,-344,-220
80,352,272,-216,-96,312,-25,-20,-155,-213,-347,-221
79,352,273,-215,-97,313,-25,-21,-156,-216,-350,-221
78,351,273,-214,-97,312,-27,-24,-160,-221,-353,-223
78,351,273,-214,-97,312,-29,-27,-164,-225,-356,-226
78,352,274,-215,-98,313,-31,-30,-168,-228,-359,-228
78,352,274,-215,-98,313,-33,-33,-172,-231,-362,-230
78,353,275,-215,-98,314,-35,-35,-175,-233,-364,-231
79,352,273,-215,-97,313,-35,-36,-176,-236,-366,-231
80,351,271,-215,-95,311,-35,-36,-176,-238,-368,-230
80,348,268,-214,-94,308,-34,-35,-174,-240,-369,-229
80,346,266,-213,-93,306,-34,-36,-173,-243,-372,-231
80,345,265,-212,-92,305,-33,-36,-173,-244,-375,-232
81,345,264,-213,-91,305,-35,-39,-176,-247,-378,-234
82,346,264,-214,-91,305,-36,-39,-176,-248,-379,-235
81,347,266,-214,-92,307,-37,-39,-177,-248,-380,-236
81,348,267,-214,-93,308,-39,-40,-178,-249,-382,-238
83,347,264,-215,-90,306,-38,-40,-178,-247,-383,-239
84,346,262,-215,-89,304,-37,-37,-175,-246,-383,-237
86,345,259,-215,-86,302,-35,-34,-172,-244,-382,-236
87,343,256,-215,-84,300,-33,-32,-167,-241,-381,-235
88,342,254,-215,-83,298,-31,-29,-163,-239,-380,-233
89,342,253,-215,-82,298,-30,-27,-160,-236,-380,-233
90,343,253,-216,-81,298,-30,-26,-159,-234,-381,-234
90,344,254,-217,-82,299,-29,-25,-158,-231,-378,-235
90,346,256,-218,-83,301,-30,-25,-159,-228,-375,-235
90,348,258,-219,-84,303,-30,-24,-159,-224,-372,-233
90,350,260,-220,-85,305,-29,-22,-156,-220,-368,-230
90,352,262,-221,-86,307,-28,-19,-153,-216,-365,-228
93,353,260,-223,-83,307,-25,-16,-151,-212,-361,-225
95,353,258,-224,-81,306,-22,-13,-149,-209,-358,-221
93,353,260,-223,-83,307,-18,-9,-146,-205,-353,-217
91,355,264,-223,-86,310,-16,-7,-145,-203,-349,-216
92,357,265,-224,-86,311,-15,-8,-147,-202,-346,-214
94,360,266,-227,-86,313,-16,-10,-151,-201,-344,-213
93,363,270,-228,-88,317,-17,-11,-154,-199,-339,-212
92,366,274,-229,-91,320,-17,-11,-155,-194,-333,-209
94,369,275,-231,-90,322,-17,-13,-157,-191,-330,-208
94,371,277,-232,-91,324,-16,-13,-159,-189,-326,-205
93,372,279,-232,-93,326,-13,-11,-157,-186,-319,-200
93,374,281,-233,-94,328,-10,-9,-155,-183,-313,-195
94,374,280,-234,-93,327,-9,-11,-157,-181,-310,-193
94,375,281,-234,-93,328,-8,-13,-158,-179,-306,-191
94,378,284,-236,-95,331,-9,-15,-161,-179,-303,-189
93,381,288,-237,-97,335,-10,-18,-165,-179,-299,-188
92,384,292,-238,-100,338,-11,-20,-169,-178,-295,-185
91,387,296,-239,-102,342,-12,-23,-172,-176,-291,-184
90,389,299,-239,-104,344,-12,-24,-174,-173,-287,-182
91,390,299,-240,-104,345,-12,-25,-176,-172,-283,-179
91,390,299,-240,-104,345,-11,-24,-177,-169,-278,-175
91,389,298,-240,-103,344,-11,-24,-177,-166,-275,-174
90,389,299,-239,-104,344,-9,-23,-176,-163,-271,-172
92,390,298,-241,-103,344,-9,-25,-177,-161,-269,-169
93,392,299,-242,-103,346,-10,-27,-179,-160,-266,-166
92,395,303,-243,-105,349,-11,-29,-182,-160,-265,-166
91,397,306,-244,-107,352,-13,-31,-185,-158,-262,-166
90,398,308,-244,-109,353,-14,-33,-186,-157,-259,-165
90,400,310,-245,-110,355,-15,-34,-188,-157,-256,-165
90,401,311,-245,-110,356,-14,-34,-187,-155,-253,-163
91,401,310,-246,-109,356,-14,-35,-187,-153,-252,-162
91,401,310,-246,-109,356,-13,-35,-185,-151,-249,-160
91,401,310,-246,-109,356,-11,-33,-184,-149,-247,-159
92,400,308,-246,-108,354,-10,-32,-184,-149,-246,-159
91,399,308,-245,-108,354,-10,-33,-186,-149,-246,-158
91,402,311,-246,-110,357,-13,-35,-189,-150,-245,-158
91,404,313,-247,-111,359,-14,-37,-191,-149,-244,-158
91,405,314,-248,-111,360,-15,-38,-191,-148,-242,-157
91,406,315,-248,-112,361,-16,-38,-190,-146,-240,-157
91,406,315,-248,-112,361,-14,-36,-189,-145,-238,-155
91,406,315,-248,-112,361,-13,-35,-189,-143,-236,-154
92,405,313,-248,-110,359,-14,-34,-188,-142,-236,-153
91,403,312,-247,-110,358,-12,-33,-186,-141,-236,-153
91,402,311,-246,-110,357,-11,-33,-185,-142,-236,-153
90,403,313,-246,-111,358,-12,-35,-186,-141,-237,-152
90,404,314,-247,-112,359,-13,-35,-187,-141,-237,-153
90,404,314,-247,-112,359,-14,-36,-189,-142,-237,-154
90,405,315,-247,-112,360,-16,-37,-191,-143,-237,-157
91,406,315,-248,-112,361,-17,-37,-191,-142,-235,-155
91,406,315,-248,-112,361,-15,-37,-190,-141,-234,-154
91,405,314,-248,-111,360,-14,-36,-188,-140,-234,-153
91,404,313,-247,-111,359,-13,-35,-186,-140,-234,-153
91,403,312,-247,-110,358,-11,-32,-183,-138,-234,-152
91,403,312,-247,-110,358,-11,-31,-182,-138,-234,-152
91,403,312,-247,-110,358,-11,-31,-182,-137,-234,-152
91,404,313,-247,-111,359,-13,-33,-184,-138,-235,-153
92,405,313,-248,-110,359,-14,-34,-186,-139,-235,-154
92,407,315,-249,-111,361,-15,-36,-188,-141,-236,-156
92,407,315,-249,-111,361,-16,-35,-188,-139,-235,-155
92,407,315,-249,-111,361,-16,-35,-187,-139,-234,-155
91,406,315,-248,-112,361,-14,-33,-185,-138,-233,-154
91,405,314,-248,-111,360,-12,-32,-184,-138,-233,-154
92,404,312,-248,-110,358,-11,-31,-183,-138,-234,-153
92,403,311,-247,-109,357,-11,-31,-182,-139,-236,-154
91,403,312,-247,-110,358,-10,-30,-182,-139,-235,-153
90,404,314,-247,-112,359,-11,-31,-183,-140,-235,-153
90,405,315,-247,-112,360,-13,-33,-185,-141,-236,-155
91,406,315,-248,-112,361,-15,-34,-186,-141,-237,-156
90,405,315,-247,-112,360,-16,-34,-186,-141,-236,-157
90,405,315,-247,-112,360,-15,-33,-185,-141,-235,-157
90,405,315,-247,-112,360,-13,-32,-184,-140,-235,-156
91,404,313,-247,-111,359,-12,-31,-183,-140,-235,-155
92,402,310,-247,-109,356,-10,-30,-181,-138,-235,-154
92,402,310,-247,-109,356,-9,-30,-181,-138,-236,-154
92,402,310,-247,-109,356,-10,-30,-182,-138,-237,-155
91,403,312,-247,-110,358,-12,-31,-183,-138,-237,-155
91,404,313,-247,-111,359,-13,-32,-186,-138,-238,-157
91,405,314,-248,-111,360,-14,-33,-187,-138,-237,-157
91,405,314,-248,-111,360,-14,-33,-188,-139,-238,-158
92,405,313,-248,-110,359,-14,-33,-188,-140,-237,-159
91,404,313,-247,-111,359,-12,-32,-186,-140,-236,-157
91,403,312,-247,-110,358,-10,-30,-183,-139,-235,-154
90,402,312,-246,-111,357,-9,-29,-181,-140,-237,-154
90,401,311,-245,-110,356,-8,-28,-180,-139,-238,-155
90,401,311,-245,-110,356,-9,-29,-182,-140,-239,-157
90,402,312,-246,-111,357,-11,-31,-184,-142,-241,-157
91,404,313,-247,-111,359,-13,-32,-186,-143,-242,-158
91,405,314,-248,-111,360,-14,-33,-187,-143,-242,-159
91,404,313,-247,-111,359,-14,-33,-188,-144,-242,-160
91,404,313,-247,-111,359,-13,-33,-188,-144,-242,-159
91,404,313,-247,-111,359,-13,-33,-188,-143,-241,-158
91,403,312,-247,-110,358,-11,-32,-186,-142,-240,-156
89,401,312,-245,-111,357,-10,-30,-185,-142,-240,-155
88,400,312,-244,-112,356,-8,-29,-183,-141,-240,-154
89,400,311,-244,-111,356,-10,-30,-186,-142,-242,-156
90,401,311,-245,-110,356,-10,-31,-187,-144,-243,-156
90,402,312,-246,-111,357,-12,-34,-190,-147,-244,-157
90,404,314,-247,-112,359,-13,-35,-193,-148,-244,-158
91,405,314,-248,-111,360,-14,-35,-193,-147,-243,-160
91,404,313,-247,-111,359,-13,-34,-191,-146,-240,-159
92,403,311,-247,-109,357,-13,-34,-192,-146,-241,-158
92,402,310,-247,-109,356,-12,-34,-191,-145,-241,-156
92,401,309,-246,-108,355,-11,-33,-188,-145,-241,-155
91,400,309,-245,-109,355,-10,-32,-187,-145,-240,-154
91,400,309,-245,-109,355,-10,-31,-187,-146,-240,-154
91,401,310,-246,-109,356,-12,-33,-189,-148,-242,-154
92,402,310,-247,-109,356,-13,-35,-191,-149,-242,-155
92,403,311,-247,-109,357,-16,-38,-195,-150,-242,-158
91,403,312,-247,-110,358,-14,-37,-195,-148,-241,-157
91,403,312,-247,-110,358,-14,-37,-195,-148,-240,-156
92,403,311,-247,-109,357,-14,-37,-196,-149,-242,-156
93,401,308,-247,-107,355,-12,-35,-194,-147,-240,-154
92,400,308,-246,-108,354,-11,-35,-193,-147,-239,-154
91,399,308,-245,-108,354,-10,-34,-192,-146,-239,-153
92,400,308,-246,-108,354,-12,-35,-193,-147,-240,-155
92,401,309,-246,-108,355,-13,-36,-194,-147,-240,-156
92,402,310,-247,-109,356,-14,-37,-195,-148,-240,-157
92,402,310,-247,-109,356,-14,-38,-196,-149,-240,-157
91,402,311,-246,-110,357,-15,-39,-196,-149,-239,-157
91,402,311,-246,-110,357,-16,-39,-196,-148,-239,-157
90,402,312,-246,-111,357,-14,-38,-195,-147,-238,-156
90,400,310,-245,-110,355,-12,-36,-193,-145,-237,-154
90,398,308,-244,-109,353,-10,-35,-191,-145,-236,-152
90,398,308,-244,-109,353,-10,-35,-191,-146,-238,-152
90,399,309,-244,-109,354,-11,-36,-193,-147,-240,-154
89,400,311,-244,-111,356,-12,-36,-195,-148,-239,-154
89,401,312,-245,-111,357,-13,-37,-197,-149,-237,-154
90,402,312,-246,-111,357,-15,-39,-199,-151,-239,-156
91,402,311,-246,-110,357,-16,-40,-200,-152,-239,-158
91,402,311,-246,-110,357,-15,-39,-200,-151,-239,-156
91,401,310,-246,-109,356,-13,-38,-200,-150,-238,-155
91,400,309,-245,-109,355,-11,-37,-198,-148,-238,-153
90,398,308,-244,-109,353,-10,-35,-196,-146,-237,-152
91,398,307,-244,-108,353,-10,-36,-195,-147,-238,-153
91,399,308,-245,-108,354,-11,-36,-194,-147,-238,-152
91,400,309,-245,-109,355,-12,-37,-194,-147,-238,-153
92,401,309,-246,-108,355,-14,-39,-197,-148,-239,-155
91,401,310,-246,-109,356,-15,-41,-198,-149,-239,-157
91,402,311,-246,-110,357,-16,-43,-200,-149,-239,-157
91,402,311,-246,-110,357,-15,-41,-200,-149,-238,-157
91,401,310,-246,-109,356,-14,-39,-198,-148,-238,-156
90,399,309,-244,-109,354,-12,-36,-196,-148,-237,-154
89,397,308,-243,-109,353,-10,-34,-195,-148,-237,-152
89,398,309,-243,-110,354,-10,-34,-194,-150,-237,-152
91,398,307,-244,-108,353,-11,-36,-195,-151,-237,-153
92,399,307,-245,-107,353,-12,-38,-197,-150,-236,-153
92,401,309,-246,-108,355,-14,-39,-200,-150,-236,-154
92,402,310,-247,-109,356,-14,-39,-201,-150,-236,-154
92,402,310,-247,-109,356,-15,-41,-203,-151,-236,-155
91,402,311,-246,-110,357,-14,-40,-203,-151,-236,-154
90,401,311,-245,-110,356,-12,-39,-201,-151,-235,-152
90,400,310,-245,-110,355,-11,-38,-200,-150,-236,-152
91,398,307,-244,-108,353,-10,-38,-199,-150,-237,-151
91,397,306,-244,-107,352,-9,-36,-198,-148,-236,-150
91,398,307,-244,-108,353,-11,-37,-200,-150,-237,-151
91,399,308,-245,-108,354,-11,-38,-200,-150,-237,-152
90,400,310,-245,-110,355,-13,-39,-201,-151,-237,-153
90,402,312,-246,-111,357,-15,-41,-203,-152,-238,-155
90,402,312,-246,-111,357,-16,-40,-203,-151,-237,-156
91,402,311,-246,-110,357,-15,-40,-201,-150,-236,-154
91,401,310,-246,-109,356,-14,-39,-200,-149,-236,-153
91,399,308,-245,-108,354,-12,-38,-198,-148,-235,-151
92,398,306,-245,-107,352,-11,-37,-197,-148,-235,-151
92,398,306,-245,-107,352,-10,-37,-197,-148,-235,-151
92,399,307,-245,-107,353,-10,-37,-197,-147,-235,-151
90,400,310,-245,-110,355,-11,-38,-199,-147,-235,-152
88,401,313,-244,-112,357,-12,-39,-200,-148,-235,-153
89,403,314,-246,-112,359,-15,-40,-202,-151,-236,-154
90,404,314,-247,-112,359,-14,-40,-203,-151,-235,-154
90,403,313,-246,-111,358,-14,-40,-203,-151,-235,-153
90,402,312,-246,-111,357,-13,-39,-203,-151,-234,-152
91,400,309,-245,-109,355,-11,-38,-201,-150,-233,-151
91,399,308,-245,-108,354,-11,-37,-201,-150,-235,-151
90,398,308,-244,-109,353,-9,-36,-199,-150,-235,-149
91,398,307,-244,-108,353,-11,-37,-200,-151,-235,-150
92,399,307,-245,-107,353,-12,-39,-201,-151,-233,-151
90,401,311,-245,-110,356,-13,-40,-202,-151,-233,-152
89,402,313,-245,-112,358,-14,-41,-202,-151,-234,-152
91,402,311,-246,-110,357,-15,-43,-204,-151,-234,-153
92,402,310,-247,-109,356,-15,-42,-203,-150,-234,-153
92,401,309,-246,-108,355,-14,-41,-203,-150,-234,-152
92,400,308,-246,-108,354,-12,-39,-202,-150,-234,-151
92,398,306,-245,-107,352,-9,-38,-199,-149,-233,-150
92,397,305,-244,-106,351,-10,-38,-198,-149,-234,-151
91,397,306,-244,-107,352,-10,-37,-198,-149,-233,-150
90,398,308,-244,-109,353,-11,-38,-199,-149,-232,-150
90,400,310,-245,-110,355,-12,-40,-202,-151,-232,-152
91,402,311,-246,-110,357,-14,-42,-205,-152,-233,-153
91,402,311,-246,-110,357,-16,-43,-205,-153,-233,-153
92,402,310,-247,-109,356,-15,-42,-204,-152,-233,-152
92,400,308,-246,-108,354,-14,-41,-203,-151,-232,-152
93,398,305,-245,-106,352,-11,-39,-201,-149,-232,-150
92,397,305,-244,-106,351,-10,-39,-200,-149,-233,-149
91,397,306,-244,-107,352,-9,-37,-198,-148,-232,-148
91,397,306,-244,-107,352,-10,-37,-199,-148,-232,-148
91,398,307,-244,-108,353,-11,-39,-201,-149,-234,-150
92,401,309,-246,-108,355,-13,-41,-203,-151,-235,-152
91,402,311,-246,-110,357,-15,-42,-204,-152,-236,-153
90,402,312,-246,-111,357,-16,-44,-205,-152,-235,-154
89,402,313,-245,-112,358,-15,-43,-205,-152,-234,-153
90,401,311,-245,-110,356,-13,-41,-204,-151,-233,-151
91,400,309,-245,-109,355,-11,-40,-203,-149,-233,-149
91,398,307,-244,-108,353,-10,-39,-202,-149,-233,-149
91,397,306,-244,-107,352,-9,-38,-200,-149,-233,-148
92,397,305,-244,-106,351,-11,-39,-201,-149,-234,-149
92,398,306,-245,-107,352,-12,-40,-202,-149,-234,-150
91,400,309,-245,-109,355,-13,-42,-203,-150,-234,-153
91,402,311,-246,-110,357,-15,-44,-205,-153,-234,-154
92,403,311,-247,-109,357,-17,-45,-207,-154,-236,-155
91,401,310,-246,-109,356,-16,-43,-206,-153,-235,-153
91,399,308,-245,-108,354,-13,-42,-204,-153,-234,-150
92,398,306,-245,-107,352,-12,-40,-202,-151,-233,-147
92,397,305,-244,-106,351,-11,-39,-200,-150,-234,-148
91,396,305,-243,-107,351,-10,-38,-199,-150,-234,-148
90,396,306,-243,-108,351,-11,-39,-200,-153,-234,-148
91,398,307,-244,-108,353,-13,-40,-202,-153,-234,-150
91,400,309,-245,-109,355,-14,-42,-202,-151,-233,-152
91,400,309,-245,-109,355,-15,-43,-205,-151,-234,-154
90,400,310,-245,-110,355,-16,-44,-207,-152,-235,-154
91,400,309,-245,-109,355,-15,-44,-206,-151,-233,-151
92,400,308,-246,-108,354,-14,-43,-206,-151,-232,-149
92,398,306,-245,-107,352,-11,-40,-203,-149,-232,-147
92,396,304,-244,-106,350,-10,-40,-201,-148,-231,-147
91,395,304,-243,-106,350,-10,-41,-201,-150,-232,-148
91,395,304,-243,-106,350,-11,-40,-201,-151,-234,-148
91,396,305,-243,-107,351,-11,-40,-201,-152,-234,-149
91,397,306,-244,-107,352,-12,-41,-203,-153,-233,-150
91,398,307,-244,-108,353,-15,-43,-206,-154,-234,-151
90,398,308,-244,-109,353,-15,-43,-206,-152,-232,-151
90,398,308,-244,-109,353,-14,-43,-206,-151,-231,-151
90,398,308,-244,-109,353,-13,-42,-205,-150,-232,-151
90,396,306,-243,-108,351,-12,-41,-203,-150,-232,-150
90,395,305,-242,-107,350,-10,-39,-200,-148,-230,-148
90,394,304,-242,-107,349,-9,-39,-199,-147,-231,-148
90,394,304,-242,-107,349,-10,-39,-199,-148,-232,-148
90,395,305,-242,-107,350,-11,-40,-200,-149,-231,-148
89,396,307,-242,-109,352,-12,-41,-202,-150,-230,-149
89,396,307,-242,-109,352,-12,-42,-204,-151,-230,-150
89,396,307,-242,-109,352,-13,-43,-205,-152,-230,-150
90,396,306,-243,-108,351,-14,-45,-206,-153,-231,-152
90,396,306,-243,-108,351,-13,-44,-205,-153,-232,-151
91,395,304,-243,-106,350,-11,-42,-204,-153,-231,-150
91,394,303,-242,-106,349,-10,-40,-202,-152,-230,-148
91,393,302,-242,-105,348,-9,-40,-201,-152,-230,-147
91,393,302,-242,-105,348,-9,-40,-201,-152,-230,-147
90,393,303,-241,-106,348,-10,-41,-202,-152,-230,-148
90,394,304,-242,-107,349,-11,-42,-203,-151,-230,-149
90,395,305,-242,-107,350,-13,-43,-206,-151,-231,-151
90,396,306,-243,-108,351,-14,-44,-208,-151,-231,-152
90,395,305,-242,-107,350,-13,-43,-207,-150,-228,-150
90,394,304,-242,-107,349,-12,-42,-206,-151,-229,-149
90,393,303,-241,-106,348,-10,-41,-204,-151,-230,-149
91,393,302,-242,-105,348,-9,-40,-202,-150,-229,-148
90,393,303,-241,-106,348,-8,-39,-201,-150,-229,-148
"
		89","
		393","
		304","
		-241","
		-107","
		349","
		-8","
		-39","
		-199","
		-148","
		-229","
		-148"
89,393,304,-241,-107,349,-10,-40,-200,-149,-229,-150
89,393,304,-241,-107,349,-11,-42,-201,-150,-229,-149
90,394,304,-242,-107,349,-13,-44,-203,-151,-228,-149
91,394,303,-242,-106,349,-13,-44,-203,-151,-227,-149
91,395,304,-243,-106,350,-14,-44,-204,-152,-228,-151
92,394,302,-243,-105,348,-13,-43,-205,-151,-229,-150
92,393,301,-242,-104,347,-10,-41,-203,-150,-229,-148
92,391,299,-241,-103,345,-9,-41,-202,-150,-229,-148
92,391,299,-241,-103,345,-8,-41,-202,-150,-229,-147
92,392,300,-242,-104,346,-9,-41,-202,-149,-228,-147
91,393,302,-242,-105,348,-10,-42,-203,-150,-229,-148
91,394,303,-242,-106,349,-11,-43,-204,-150,-229,-149
92,395,303,-243,-105,349,-13,-44,-206,-152,-229,-148
92,396,304,-244,-106,350,-13,-43,-207,-153,-228,-148
91,394,303,-242,-106,349,-12,-42,-206,-152,-227,-149
90,394,304,-242,-107,349,-12,-41,-203,-150,-228,-149
91,393,302,-242,-105,348,-11,-40,-200,-149,-228,-147
92,391,299,-241,-103,345,-10,-39,-199,-149,-228,-147
92,390,298,-241,-103,344,-8,-38,-198,-148,-227,-146
92,391,299,-241,-103,345,-9,-39,-199,-149,-228,-147
92,393,301,-242,-104,347,-10,-40,-201,-149,-228,-147
92,394,302,-243,-105,348,-11,-42,-204,-149,-229,-148
91,395,304,-243,-106,350,-12,-43,-206,-149,-230,-147
90,395,305,-242,-107,350,-12,-43,-206,-149,-229,-147
90,394,304,-242,-107,349,-12,-42,-205,-150,-228,-148
91,393,302,-242,-105,348,-11,-42,-204,-149,-227,-147
92,393,301,-242,-104,347,-10,-41,-202,-149,-227,-145
92,391,299,-241,-103,345,-9,-39,-200,-149,-228,-145
92,390,298,-241,-103,344,-8,-38,-199,-148,-228,-145
91,391,300,-241,-104,346,-9,-39,-200,-149,-229,-145
91,392,301,-241,-105,347,-11,-41,-202,-151,-230,-147
91,393,302,-242,-105,348,-12,-42,-203,-151,-230,-147
91,395,304,-243,-106,350,-13,-43,-205,-152,-230,-148
92,396,304,-244,-106,350,-13,-43,-206,-151,-230,-147
92,395,303,-243,-105,349,-12,-43,-206,-151,-230,-147
92,393,301,-242,-104,347,-10,-41,-203,-150,-230,-146
92,392,300,-242,-104,346,-10,-42,-202,-150,-230,-146
93,391,298,-242,-102,345,-10,-42,-201,-150,-230,-146
93,390,297,-241,-102,344,-10,-41,-201,-149,-230,-146
93,391,298,-242,-102,345,-10,-41,-201,-149,-230,-146
92,392,300,-242,-104,346,-10,-41,-202,-149,-230,-146
90,393,303,-241,-106,348,-11,-43,-203,-151,-231,-147
91,394,303,-242,-106,349,-12,-43,-204,-152,-230,-146
91,395,304,-243,-106,350,-13,-43,-205,-154,-231,-147
91,394,303,-242,-106,349,-12,-42,-204,-153,-229,-146
91,393,302,-242,-105,348,-12,-42,-203,-152,-230,-146
91,392,301,-241,-105,347,-11,-41,-202,-150,-230,-145
92,391,299,-241,-103,345,-10,-40,-201,-149,-229,-145
92,389,297,-240,-102,343,-9,-39,-201,-148,-229,-145
93,390,297,-241,-102,344,-10,-41,-202,-150,-231,-147
93,391,298,-242,-102,345,-11,-41,-203,-150,-231,-146
93,392,299,-242,-103,346,-12,-42,-203,-150,-231,-145
92,394,302,-243,-105,348,-13,-43,-205,-152,-230,-146
91,395,304,-243,-106,350,-13,-44,-205,-152,-229,-147
92,394,302,-243,-105,348,-13,-45,-205,-151,-229,-148
93,392,299,-242,-103,346,-12,-44,-203,-149,-229,-146
93,391,298,-242,-102,345,-10,-41,-202,-149,-229,-145
93,390,297,-241,-102,344,-9,-40,-201,-149,-230,-146
93,389,296,-241,-101,343,-8,-38,-200,-147,-228,-144
93,391,298,-242,-102,345,-8,-39,-202,-148,-229,-143
92,391,299,-241,-103,345,-9,-39,-203,-148,-229,-145
92,391,299,-241,-103,345,-11,-41,-204,-149,-230,-147
93,392,299,-242,-103,346,-12,-41,-205,-149,-230,-147
93,393,300,-243,-103,347,-14,-43,-206,-149,-231,-148
94,393,299,-243,-102,346,-14,-43,-205,-149,-230,-148
94,392,298,-243,-102,345,-12,-43,-203,-148,-230,-147
94,391,297,-242,-101,344,-9,-40,-200,-147,-228,-145
94,390,296,-242,-101,343,-8,-39,-198,-148,-228,-144
93,389,296,-241,-101,343,-8,-39,-198,-147,-227,-143
92,388,296,-240,-102,342,-9,-40,-199,-147,-228,-144
92,390,298,-241,-103,344,-10,-40,-200,-147,-228,-145
92,392,300,-242,-104,346,-11,-41,-202,-148,-229,-146
93,393,300,-243,-103,347,-13,-43,-204,-149,-230,-147
93,394,301,-243,-104,348,-13,-43,-204,-148,-230,-147
93,393,300,-243,-103,347,-13,-42,-204,-148,-230,-146
93,392,299,-242,-103,346,-11,-40,-202,-147,-229,-145
94,390,296,-242,-101,343,-9,-39,-201,-147,-228,-144
94,389,295,-241,-100,342,-8,-38,-199,-147,-228,-144
93,388,295,-240,-101,342,-8,-37,-198,-146,-228,-143
92,388,296,-240,-102,342,-9,-38,-199,-147,-229,-145
91,389,298,-240,-103,344,-9,-39,-200,-147,-229,-145
91,391,300,-241,-104,346,-10,-39,-201,-146,-227,-144
91,392,301,-241,-105,347,-12,-41,-202,-147,-228,-145
92,394,302,-243,-105,348,-13,-41,-203,-147,-228,-146
93,394,301,-243,-104,348,-12,-40,-203,-145,-227,-146
93,393,300,-243,-103,347,-11,-41,-203,-146,-228,-146
93,391,298,-242,-102,345,-9,-40,-201,-147,-227,-143
93,390,297,-241,-102,344,-9,-39,-199,-148,-227,-142
94,389,295,-241,-100,342,-8,-38,-197,-146,-226,-143
94,389,295,-241,-100,342,-8,-38,-198,-145,-227,-144
94,390,296,-242,-101,343,-8,-38,-199,-146,-228,-145
94,392,298,-243,-102,345,-9,-39,-200,-149,-229,-146
94,393,299,-243,-102,346,-9,-38,-200,-147,-228,-145
94,393,299,-243,-102,346,-8,-37,-199,-145,-227,-145
95,391,296,-243,-100,344,-7,-36,-198,-143,-226,-145
96,390,294,-243,-99,342,-5,-36,-197,-142,-226,-144
98,388,290,-243,-96,339,-4,-34,-196,-142,-226,-144
99,385,286,-242,-93,336,-1,-30,-192,-139,-225,-142
100,385,285,-242,-92,335,1,-26,-189,-137,-224,-141
101,386,285,-243,-92,336,1,-25,-188,-136,-224,-140
101,388,287,-244,-93,338,0,-24,-188,-135,-223,-141
101,390,289,-245,-94,340,0,-22,-186,-134,-222,-140
103,392,289,-247,-93,341,-1,-22,-187,-134,-222,-141
105,393,288,-249,-91,341,-1,-21,-185,-133,-221,-141
107,392,285,-249,-89,339,-1,-18,-182,-131,-219,-139
108,390,282,-249,-87,336,0,-16,-180,-129,-218,-137
109,388,279,-248,-85,334,2,-14,-179,-127,-218,-137
109,387,278,-248,-84,333,3,-13,-178,-127,-220,-138
110,387,277,-248,-83,332,4,-13,-178,-125,-219,-137
109,388,279,-248,-85,334,5,-13,-178,-125,-218,-136
106,390,284,-248,-89,337,7,-13,-179,-126,-218,-137
105,391,286,-248,-90,339,9,-12,-180,-129,-219,-138
105,392,287,-248,-91,340,9,-13,-181,-131,-219,-138
106,393,287,-249,-90,340,6,-14,-183,-131,-220,-140
108,393,285,-250,-88,339,2,-13,-183,-131,-220,-141
110,392,282,-251,-86,337,-2,-13,-183,-133,-220,-140
112,391,279,-251,-83,335,-5,-12,-183,-133,-220,-139
111,390,279,-250,-84,335,-7,-13,-183,-132,-221,-139
109,389,280,-249,-85,335,-9,-16,-184,-133,-221,-138
107,389,282,-248,-87,336,-11,-23,-188,-136,-222,-138
104,389,285,-246,-90,337,-13,-30,-193,-138,-222,-139
101,390,289,-245,-94,340,-14,-36,-197,-138,-222,-139
101,391,290,-246,-94,341,-16,-42,-202,-140,-224,-142
101,391,290,-246,-94,341,-17,-44,-205,-142,-224,-143
101,389,288,-245,-93,339,-16,-43,-206,-143,-224,-144
101,387,286,-244,-92,337,-15,-42,-206,-145,-225,-144
101,384,283,-242,-91,334,-13,-41,-205,-145,-225,-142
102,382,280,-242,-89,331,-11,-39,-204,-144,-226,-142
102,381,279,-241,-88,330,-10,-36,-202,-143,-226,-142
103,381,278,-242,-87,330,-10,-34,-200,-143,-225,-143
102,383,281,-242,-89,332,-11,-36,-201,-144,-226,-143
101,385,284,-243,-91,335,-14,-41,-205,-147,-227,-144
100,387,287,-243,-93,337,-15,-43,-207,-146,-226,-144
99,389,290,-244,-95,340,-16,-43,-207,-145,-225,-144
99,390,291,-244,-96,341,-17,-44,-208,-146,-226,-144
100,389,289,-244,-94,339,-16,-45,-207,-147,-226,-143
99,387,288,-243,-94,338,-13,-44,-206,-148,-224,-143
97,384,287,-240,-95,336,-10,-43,-204,-147,-225,-143
95,382,287,-238,-96,335,-8,-43,-204,-148,-227,-145
92,381,289,-236,-98,335,-7,-42,-204,-147,-227,-146
91,383,292,-237,-100,338,-8,-43,-206,-148,-228,-147
91,386,295,-238,-102,341,-10,-43,-206,-146,-227,-146
91,388,297,-239,-103,343,-11,-42,-205,-144,-226,-145
92,388,296,-240,-102,342,-13,-44,-207,-146,-227,-147
92,387,295,-239,-101,341,-11,-45,-208,-147,-227,-147
91,385,294,-238,-101,340,-9,-44,-208,-148,-228,-147
91,383,292,-237,-100,338,-9,-44,-208,-148,-229,-149
91,381,290,-236,-99,336,-7,-43,-207,-147,-228,-147
90,380,290,-235,-100,335,-6,-42,-205,-146,-227,-145
89,381,292,-235,-101,337,-7,-42,-205,-145,-227,-144
89,383,294,-236,-102,339,-8,-43,-205,-147,-228,-145
89,384,295,-236,-103,340,-9,-43,-205,-148,-228,-147
89,385,296,-237,-103,341,-11,-45,-208,-149,-228,-149
88,385,297,-236,-104,341,-10,-44,-208,-148,-227,-148
89,385,296,-237,-103,341,-11,-46,-209,-150,-228,-148
90,384,294,-237,-102,339,-10,-45,-208,-150,-228,-148
91,384,293,-237,-101,339,-8,-44,-206,-148,-227,-147
91,383,292,-237,-100,338,-6,-43,-205,-147,-227,-146
90,382,292,-236,-101,337,-5,-41,-202,-145,-226,-145
90,383,293,-236,-101,338,-5,-41,-202,-145,-226,-145
90,384,294,-237,-102,339,-8,-43,-205,-145,-227,-146
89,385,296,-237,-103,341,-9,-44,-207,-146,-227,-146
88,386,298,-237,-105,342,-10,-44,-208,-147,-227,-147
87,386,299,-236,-106,343,-9,-42,-208,-146,-226,-146
89,387,298,-238,-104,343,-9,-43,-208,-147,-226,-147
90,386,296,-238,-103,341,-8,-42,-206,-147,-225,-147
91,385,294,-238,-101,340,-7,-41,-205,-147,-226,-146
90,383,293,-236,-101,338,-5,-40,-204,-146,-226,-144
90,382,292,-236,-101,337,-5,-40,-204,-147,-226,-144
91,383,292,-237,-100,338,-6,-41,-206,-148,-227,-146
90,384,294,-237,-102,339,-7,-42,-206,-148,-226,-146
90,385,295,-237,-102,340,-8,-42,-206,-148,-226,-146
90,386,296,-238,-103,341,-9,-43,-206,-147,-225,-146
90,386,296,-238,-103,341,-9,-43,-206,-147,-225,-146
89,386,297,-237,-104,342,-10,-43,-205,-146,-225,-146
89,385,296,-237,-103,341,-9,-42,-205,-145,-225,-146
90,384,294,-237,-102,339,-8,-41,-204,-144,-225,-146
91,383,292,-237,-100,338,-7,-40,-203,-144,-225,-147
91,383,292,-237,-100,338,-6,-40,-203,-144,-225,-147
91,383,292,-237,-100,338,-6,-40,-203,-144,-225,-145
90,384,294,-237,-102,339,-7,-41,-204,-146,-225,-145
91,385,294,-238,-101,340,-8,-42,-205,-146,-225,-146
91,387,296,-239,-102,342,-9,-43,-206,-147,-225,-147
90,388,298,-239,-104,343,-9,-43,-206,-145,-224,-146
90,388,298,-239,-104,343,-9,-42,-206,-144,-223,-146
91,386,295,-238,-102,341,-8,-41,-205,-143,-223,-145
91,385,294,-238,-101,340,-5,-39,-202,-142,-223,-144
91,384,293,-237,-101,339,-5,-39,-201,-142,-224,-144
91,384,293,-237,-101,339,-5,-39,-199,-142,-224,-143
92,384,292,-238,-100,338,-5,-39,-198,-141,-223,-142
92,385,293,-238,-100,339,-6,-40,-201,-141,-224,-143
92,387,295,-239,-101,341,-7,-40,-202,-141,-224,-145
92,388,296,-240,-102,342,-8,-40,-204,-144,-225,-147
91,387,296,-239,-102,342,-7,-37,-203,-144,-226,-148
89,386,297,-237,-104,342,-3,-32,-197,-143,-227,-149
87,385,298,-236,-105,342,4,-23,-186,-142,-228,-152
85,384,299,-234,-107,342,12,-13,-172,-139,-230,-153
83,385,302,-234,-109,344,19,-4,-156,-134,-231,-152
83,389,306,-236,-111,348,25,5,-135,-124,-228,-150
84,395,311,-239,-113,353,28,12,-112,-110,-221,-147
88,405,317,-246,-114,361,24,12,-89,-89,-212,-142
93,419,326,-256,-116,373,19,15,-60,-61,-197,-134
99,435,336,-267,-118,386,13,18,-26,-26,-178,-124
110,452,342,-281,-116,397,4,21,5,17,-153,-106
127,471,344,-299,-108,408,-9,26,27,63,-121,-83
151,494,343,-322,-96,419,-27,31,37,108,-83,-55
176,525,349,-350,-86,437,-50,11,20,154,-34,-16
195,568,373,-381,-89,471,-87,-62,-52,194,25,32
209,617,408,-413,-99,513,-134,-168,-180,222,90,85
221,669,448,-445,-113,559,-183,-276,-334,239,158,139
229,720,491,-474,-131,606,-233,-384,-488,259,228,195
235,767,532,-501,-148,650,-284,-502,-638,276,293,247
238,803,565,-520,-163,684,-328,-624,-791,267,342,288
237,816,579,-526,-171,698,-357,-729,-926,223,363,310
228,797,569,-512,-170,683,-363,-790,-1014,156,351,308
206,752,546,-479,-170,649,-342,-805,-1061,66,307,284
177,694,517,-435,-170,606,-304,-783,-1079,-53,237,246
152,629,477,-390,-162,553,-267,-737,-1071,-194,155,199
131,569,438,-350,-153,504,-240,-684,-1042,-330,76,152
116,523,407,-319,-145,465,-222,-627,-990,-427,10,110
109,483,374,-296,-132,429,-202,-547,-902,-466,-52,68
105,437,332,-271,-113,385,-169,-448,-792,-467,-123,15
98,384,286,-241,-94,335,-120,-355,-688,-441,-195,-50
92,341,249,-216,-78,295,-75,-282,-600,-388,-250,-108
93,316,223,-204,-65,270,-46,-219,-516,-324,-276,-140
102,310,208,-206,-53,259,-34,-163,-436,-269,-280,-155
111,318,207,-214,-48,263,-33,-124,-369,-228,-273,-158
115,332,217,-223,-51,275,-36,-97,-317,-193,-263,-154
116,346,230,-231,-57,288,-36,-77,-274,-165,-253,-151
116,362,246,-239,-65,304,-36,-62,-237,-142,-241,-145
115,378,263,-246,-74,321,-39,-54,-209,-123,-229,-139
112,385,273,-248,-80,329,-38,-46,-191,-111,-223,-137
109,384,275,-246,-83,330,-32,-39,-185,-109,-225,-142
106,382,276,-244,-85,329,-25,-31,-178,-106,-227,-147
104,380,276,-242,-86,328,-21,-23,-169,-102,-228,-149
103,378,275,-240,-86,327,-17,-16,-161,-100,-229,-151
103,376,273,-239,-85,325,-12,-11,-156,-100,-230,-150
102,374,272,-238,-85,323,-8,-7,-151,-99,-231,-150
102,373,271,-237,-84,322,-6,-3,-147,-100,-233,-151
102,372,270,-237,-84,321,-5,-1,-146,-102,-235,-152
101,371,270,-236,-84,321,-4,0,-144,-102,-235,-154
99,372,273,-235,-87,323,-5,0,-144,-103,-237,-157
98,372,274,-235,-88,323,-5,1,-142,-103,-239,-160
98,373,275,-235,-88,324,-6,1,-142,-105,-241,-162
99,373,274,-236,-87,324,-5,2,-140,-103,-240,-161
99,373,274,-236,-87,324,-3,5,-137,-102,-239,-160
99,372,273,-235,-87,323,-1,9,-133,-101,-237,-158
100,371,271,-235,-85,321,2,12,-129,-100,-238,-157
99,370,271,-234,-86,321,4,15,-125,-99,-239,-158
99,369,270,-234,-85,320,4,15,-125,-99,-240,-160
99,369,270,-234,-85,320,3,14,-125,-100,-242,-161
99,370,271,-234,-86,321,2,15,-125,-100,-244,-163
98,370,272,-234,-87,321,1,14,-125,-98,-243,-164
97,371,274,-234,-88,323,1,12,-125,-97,-241,-163
95,372,277,-233,-91,325,2,14,-125,-97,-240,-162
97,371,274,-234,-88,323,2,15,-125,-99,-241,-163
100,370,270,-235,-85,320,4,18,-121,-98,-239,-160
100,370,270,-235,-85,320,5,19,-119,-98,-238,-158
99,369,270,-234,-85,320,6,21,-117,-99,-240,-159
99,368,269,-233,-85,319,7,22,-116,-99,-240,-158
98,368,270,-233,-86,319,7,21,-116,-98,-241,-159
98,369,271,-233,-86,320,5,20,-117,-97,-242,-162
99,369,270,-234,-85,320,3,18,-119,-98,-243,-166
99,370,271,-234,-86,321,2,16,-120,-96,-243,-166
99,370,271,-234,-86,321,2,17,-119,-95,-242,-165
99,370,271,-234,-86,321,3,19,-118,-95,-241,-163
99,369,270,-234,-85,320,5,20,-115,-95,-240,-160
100,368,268,-234,-84,318,6,23,-112,-93,-238,-158
100,368,268,-234,-84,318,7,24,-110,-91,-238,-159
101,368,267,-234,-83,318,7,24,-110,-93,-240,-160
100,367,267,-233,-83,317,7,23,-110,-93,-241,-160
98,367,269,-232,-85,318,6,22,-111,-95,-241,-163
96,368,272,-232,-88,320,5,21,-111,-95,-241,-164
97,369,272,-233,-87,321,4,20,-113,-95,-242,-165
98,369,271,-233,-86,320,4,20,-113,-93,-241,-165
99,369,270,-234,-85,320,3,20,-113,-92,-241,-164
99,368,269,-233,-85,319,6,23,-110,-90,-238,-162
99,368,269,-233,-85,319,8,24,-107,-89,-238,-160
99,367,268,-233,-84,318,8,25,-106,-90,-240,-161
99,366,267,-232,-84,317,8,25,-106,-91,-241,-162
99,365,266,-232,-83,316,8,26,-107,-90,-241,-162
99,365,266,-232,-83,316,7,24,-109,-89,-242,-163
99,367,268,-233,-84,318,4,22,-110,-90,-244,-165
100,368,268,-234,-84,318,2,20,-111,-90,-244,-167
100,368,268,-234,-84,318,2,21,-110,-90,-243,-167
100,367,267,-233,-83,317,4,23,-108,-89,-241,-165
100,366,266,-233,-83,316,5,24,-107,-89,-241,-163
100,365,265,-232,-82,315,6,26,-105,-88,-241,-163
101,364,263,-232,-81,314,7,27,-103,-88,-242,-163
101,364,263,-232,-81,314,7,28,-102,-88,-244,-163
99,364,265,-231,-83,315,7,28,-102,-88,-246,-164
97,364,267,-230,-85,316,7,27,-103,-88,-246,-164
99,366,267,-232,-84,317,3,24,-105,-90,-248,-168
100,367,267,-233,-83,317,3,24,-106,-90,-247,-169
100,367,267,-233,-83,317,3,24,-105,-88,-247,-169
99,366,267,-232,-84,317,3,25,-104,-88,-247,-168
100,365,265,-232,-82,315,4,26,-103,-89,-247,-167
100,364,264,-232,-82,314,7,30,-100,-87,-246,-165
100,363,263,-231,-81,313,9,31,-97,-87,-246,-164
"
		100","
		363","
		263","
		-231","
		-81","
		313","
		8","
		31","
		-98","
		-89","
		-249","
		-164"
100,362,262,-231,-81,312,7,30,-100,-92,-252,-167
99,361,262,-230,-81,312,7,29,-101,-93,-252,-169
99,362,263,-230,-82,313,6,29,-101,-93,-250,-169
99,363,264,-231,-82,314,4,27,-104,-93,-251,-170
98,364,266,-231,-84,315,3,26,-105,-93,-253,-170
99,363,264,-231,-82,314,3,27,-103,-93,-254,-170
100,361,261,-230,-80,311,5,29,-100,-93,-253,-168
100,360,260,-230,-80,310,5,30,-100,-94,-252,-168
100,359,259,-229,-79,309,6,31,-99,-94,-254,-169
99,359,260,-229,-80,310,7,33,-98,-95,-255,-169
100,359,259,-229,-79,309,5,31,-100,-97,-257,-171
100,359,259,-229,-79,309,4,30,-101,-97,-258,-172
100,360,260,-230,-80,310,3,28,-104,-98,-259,-173
99,361,262,-230,-81,312,2,27,-106,-99,-259,-175
98,360,262,-229,-82,311,3,28,-105,-98,-258,-173
97,360,263,-228,-83,312,3,28,-103,-98,-258,-171
97,358,261,-227,-82,310,5,30,-101,-98,-257,-170
98,357,259,-227,-80,308,7,32,-100,-99,-258,-170
99,356,257,-227,-79,307,8,33,-99,-100,-259,-170
99,355,256,-227,-78,306,7,33,-99,-101,-260,-172
98,355,257,-226,-79,306,6,32,-100,-101,-261,-173
99,356,257,-227,-79,307,4,30,-101,-102,-262,-174
99,356,257,-227,-79,307,3,29,-103,-103,-262,-175
97,357,260,-227,-81,309,2,28,-105,-104,-263,-177
98,357,259,-227,-80,308,2,28,-105,-104,-264,-177
99,356,257,-227,-79,307,2,29,-104,-106,-265,-177
99,354,255,-226,-78,305,3,29,-104,-108,-266,-177
99,352,253,-225,-77,303,5,31,-103,-108,-266,-175
98,351,253,-224,-77,302,6,33,-100,-108,-266,-174
97,351,254,-224,-78,303,6,32,-100,-108,-266,-175
98,351,253,-224,-77,302,4,30,-102,-109,-267,-176
99,352,253,-225,-77,303,2,27,-105,-112,-270,-179
98,352,254,-225,-78,303,0,25,-107,-114,-271,-181
97,353,256,-225,-79,305,-1,25,-108,-116,-272,-182
96,352,256,-224,-80,304,0,26,-108,-115,-272,-182
96,351,255,-223,-79,303,1,26,-109,-116,-274,-181
96,350,254,-223,-79,302,2,27,-108,-117,-274,-180
97,349,252,-223,-77,301,3,28,-107,-118,-274,-179
96,347,251,-221,-77,299,4,29,-107,-119,-274,-178
96,346,250,-221,-77,298,4,28,-108,-120,-276,-180
96,346,250,-221,-77,298,3,26,-111,-122,-279,-183
96,347,251,-221,-77,299,1,24,-113,-124,-282,-186
96,348,252,-222,-78,300,-3,21,-116,-127,-284,-188
95,348,253,-221,-79,301,-3,20,-117,-129,-282,-187
94,347,253,-220,-79,300,-3,19,-120,-131,-283,-187
94,346,252,-220,-79,299,-2,20,-119,-131,-284,-187
94,345,251,-219,-78,298,-1,21,-116,-132,-286,-187
94,343,249,-218,-77,296,0,22,-114,-132,-287,-186
94,342,248,-218,-77,295,0,21,-115,-136,-289,-187
94,342,248,-218,-77,295,-1,20,-116,-140,-291,-188
93,343,250,-218,-78,297,-2,18,-119,-144,-293,-190
92,343,251,-217,-79,297,-4,15,-123,-146,-296,-192
92,342,250,-217,-79,296,-6,14,-125,-149,-298,-193
92,342,250,-217,-79,296,-7,12,-128,-152,-300,-195
91,341,250,-216,-79,296,-8,11,-131,-155,-302,-196
90,340,250,-215,-80,295,-8,10,-132,-158,-303,-195
90,338,248,-214,-79,293,-7,8,-132,-161,-304,-193
91,336,245,-213,-77,291,-6,8,-133,-164,-307,-194
90,335,245,-212,-77,290,-4,9,-133,-167,-309,-195
89,334,245,-211,-78,290,-6,7,-135,-171,-313,-197
89,334,245,-211,-78,290,-8,4,-139,-175,-316,-199
89,333,244,-211,-77,289,-10,2,-142,-177,-318,-201
89,333,244,-211,-77,289,-13,-2,-146,-183,-322,-204
88,333,245,-210,-78,289,-16,-6,-150,-189,-326,-207
88,333,245,-210,-78,289,-16,-6,-152,-191,-327,-207
88,333,245,-210,-78,289,-16,-7,-154,-195,-328,-207
88,330,242,-209,-77,286,-15,-7,-155,-199,-331,-207
87,327,240,-207,-76,284,-14,-8,-157,-203,-334,-207
87,326,239,-206,-76,283,-13,-8,-158,-207,-337,-207
86,326,240,-206,-77,283,-15,-11,-161,-211,-340,-209
86,325,239,-205,-76,282,-18,-15,-164,-216,-344,-211
87,325,238,-206,-75,282,-20,-18,-168,-221,-347,-213
86,325,239,-205,-76,282,-22,-22,-172,-226,-350,-215
84,325,241,-204,-78,283,-23,-25,-175,-230,-353,-217
84,324,240,-204,-78,282,-24,-27,-178,-234,-356,-218
85,323,238,-204,-76,281,-25,-27,-179,-238,-359,-219
86,321,235,-203,-74,278,-24,-28,-178,-240,-359,-217
86,320,234,-203,-74,277,-23,-28,-179,-243,-360,-217
87,319,232,-203,-72,276,-23,-28,-180,-246,-363,-217
88,319,231,-203,-71,275,-24,-29,-181,-249,-365,-218
88,319,231,-203,-71,275,-25,-31,-182,-251,-366,-219
88,319,231,-203,-71,275,-27,-33,-186,-253,-369,-221
89,319,230,-204,-70,275,-29,-35,-188,-254,-372,-225
90,319,229,-204,-69,274,-29,-34,-188,-252,-374,-227
91,319,228,-205,-68,274,-29,-33,-186,-249,-374,-226
92,319,227,-205,-67,273,-29,-32,-184,-249,-374,-225
93,317,224,-205,-65,271,-27,-29,-178,-247,-372,-223
93,315,222,-204,-64,269,-25,-26,-174,-245,-373,-222
95,314,219,-204,-62,267,-22,-23,-171,-243,-373,-221
96,316,220,-206,-62,268,-22,-21,-169,-241,-372,-221
97,317,220,-207,-61,269,-22,-21,-168,-239,-371,-222
98,318,220,-208,-61,269,-22,-20,-168,-236,-370,-222
98,319,221,-208,-61,270,-24,-19,-168,-234,-369,-222
99,321,222,-210,-61,272,-23,-17,-167,-231,-366,-221
99,322,223,-210,-62,273,-21,-13,-164,-227,-362,-219
100,323,223,-211,-61,273,-19,-11,-161,-223,-359,-217
102,324,222,-213,-60,273,-16,-9,-157,-217,-355,-213
104,325,221,-214,-58,273,-15,-6,-154,-211,-351,-210
104,327,223,-215,-59,275,-12,-2,-150,-207,-345,-207
104,328,224,-216,-60,276,-11,-1,-150,-205,-343,-205
104,330,226,-217,-61,278,-9,-2,-151,-203,-340,-203
104,332,228,-218,-62,280,-10,-3,-153,-201,-336,-203
104,335,231,-219,-63,283,-11,-4,-155,-199,-332,-202
104,338,234,-221,-65,286,-10,-4,-157,-196,-327,-200
104,340,236,-222,-66,288,-9,-4,-158,-192,-323,-196
103,342,239,-222,-68,291,-7,-2,-157,-189,-318,-192
102,344,242,-223,-70,293,-4,-1,-155,-186,-311,-188
102,345,243,-223,-70,294,-3,-1,-155,-184,-305,-184
104,346,242,-225,-69,294,-2,-2,-156,-182,-300,-180
103,347,244,-225,-70,296,-1,-3,-157,-179,-297,-178
102,349,247,-225,-72,298,-1,-4,-160,-176,-294,-177
102,353,251,-227,-74,302,-3,-7,-164,-174,-291,-177
101,356,255,-228,-77,306,-4,-9,-167,-173,-287,-175
101,358,257,-229,-78,308,-5,-11,-171,-171,-282,-173
101,360,259,-230,-79,310,-3,-11,-172,-167,-275,-170
100,361,261,-230,-80,311,-2,-11,-172,-163,-268,-167
100,362,262,-231,-81,312,-2,-11,-172,-161,-265,-165
100,363,263,-231,-81,313,0,-11,-171,-158,-262,-161
101,364,263,-232,-81,314,0,-12,-171,-156,-259,-158
101,365,264,-233,-81,315,0,-13,-171,-155,-255,-155
100,367,267,-233,-83,317,0,-15,-173,-152,-252,-155
100,369,269,-234,-84,319,-2,-18,-176,-151,-250,-156
100,371,271,-235,-85,321,-3,-20,-179,-150,-248,-156
99,372,273,-235,-87,323,-4,-21,-181,-149,-245,-155
100,373,273,-236,-86,323,-4,-21,-182,-146,-241,-153
100,373,273,-236,-86,323,-3,-21,-182,-144,-237,-151
101,373,272,-237,-85,323,-2,-22,-182,-144,-235,-150
101,373,272,-237,-85,323,-2,-21,-181,-143,-234,-148
101,373,272,-237,-85,323,-1,-21,-179,-142,-233,-146
100,374,274,-237,-87,324,0,-21,-179,-140,-231,-145
99,375,276,-237,-88,326,-1,-22,-181,-139,-229,-144
98,376,278,-237,-90,327,-3,-23,-184,-138,-228,-144
98,377,279,-237,-90,328,-4,-24,-186,-137,-227,-147
98,379,281,-238,-91,330,-5,-25,-186,-135,-226,-148
99,380,281,-239,-91,331,-5,-25,-185,-133,-224,-146
99,379,280,-239,-90,330,-4,-25,-184,-132,-222,-144
98,378,280,-238,-91,329,-2,-23,-181,-131,-219,-141
99,377,278,-238,-89,328,-1,-21,-179,-131,-219,-139
102,377,275,-239,-86,326,-2,-20,-179,-132,-220,-139
101,377,276,-239,-87,327,-2,-21,-180,-131,-220,-139
100,377,277,-238,-88,327,-2,-23,-181,-131,-220,-141
98,378,280,-238,-91,329,-2,-22,-181,-130,-219,-140
99,380,281,-239,-91,331,-4,-23,-183,-130,-219,-141
100,380,280,-240,-90,330,-6,-25,-185,-130,-219,-144
100,380,280,-240,-90,330,-6,-25,-185,-129,-219,-145
100,380,280,-240,-90,330,-5,-24,-184,-128,-218,-143
100,379,279,-239,-89,329,-3,-21,-181,-126,-216,-140
101,378,277,-239,-88,328,-2,-20,-179,-126,-215,-140
102,377,275,-239,-86,326,-1,-20,-178,-126,-217,-140
101,376,275,-238,-87,326,-1,-21,-178,-126,-218,-139
99,377,278,-238,-89,328,-1,-21,-177,-126,-218,-139
98,378,280,-238,-91,329,-2,-21,-179,-127,-217,-140
100,379,279,-239,-89,329,-3,-22,-181,-129,-217,-141
102,381,279,-241,-88,330,-5,-24,-182,-129,-218,-143
102,381,279,-241,-88,330,-5,-23,-181,-127,-217,-143
101,380,279,-240,-89,330,-4,-22,-180,-126,-217,-142
101,379,278,-240,-88,329,-4,-21,-179,-127,-217,-142
100,378,278,-239,-89,328,-2,-19,-177,-126,-217,-141
100,377,277,-238,-88,327,-1,-19,-176,-125,-218,-140
100,377,277,-238,-88,327,-1,-19,-175,-125,-219,-141
100,378,278,-239,-89,328,-2,-19,-176,-125,-219,-142
100,378,278,-239,-89,328,-3,-20,-177,-126,-219,-144
99,379,280,-239,-90,330,-4,-21,-178,-128,-220,-143
99,380,281,-239,-91,331,-4,-22,-179,-128,-220,-143
99,381,282,-240,-91,332,-5,-23,-180,-129,-221,-144
100,380,280,-240,-90,330,-5,-22,-180,-129,-221,-145
100,378,278,-239,-89,328,-3,-20,-177,-128,-220,-144
100,376,276,-238,-88,326,-1,-19,-174,-126,-219,-142
100,375,275,-237,-87,325,0,-18,-174,-127,-220,-141
100,376,276,-238,-88,326,0,-17,-175,-128,-221,-142
100,377,277,-238,-88,327,-1,-18,-177,-128,-223,-144
100,378,278,-239,-89,328,-3,-19,-178,-128,-223,-144
100,379,279,-239,-89,329,-4,-20,-180,-129,-223,-146
99,379,280,-239,-90,330,-5,-22,-181,-131,-224,-148
98,379,281,-238,-91,330,-5,-22,-181,-131,-224,-147
98,379,281,-238,-91,330,-4,-20,-180,-131,-224,-145
98,378,280,-238,-91,329,-2,-18,-177,-130,-222,-143
99,376,277,-237,-89,327,-1,-19,-176,-130,-223,-144
99,374,275,-236,-88,325,0,-18,-175,-130,-223,-143
99,374,275,-236,-88,325,0,-18,-176,-130,-224,-144
99,376,277,-237,-89,327,-2,-19,-177,-132,-225,-146
98,378,280,-238,-91,329,-2,-19,-179,-132,-225,-146
99,378,279,-238,-90,329,-4,-21,-182,-134,-226,-147
99,378,279,-238,-90,329,-4,-22,-182,-134,-226,-148
98,377,279,-237,-90,328,-3,-21,-181,-134,-225,-147
97,377,280,-237,-91,329,-3,-21,-181,-135,-224,-147
98,375,277,-236,-89,326,-1,-19,-180,-133,-223,-145
99,374,275,-236,-88,325,0,-19,-179,-131,-224,-143
99,374,275,-236,-88,325,1,-19,-178,-132,-224,-143
99,374,275,-236,-88,325,1,-20,-178,-133,-225,-143
98,374,276,-236,-89,325,0,-21,-179,-134,-225,-144
98,375,277,-236,-89,326,-1,-23,-181,-135,-226,-145
97,375,278,-236,-90,327,-2,-24,-183,-135,-226,-147
98,376,278,-237,-90,327,-5,-25,-185,-137,-226,-147
98,376,278,-237,-90,327,-4,-25,-185,-137,-226,-147
97,376,279,-236,-91,328,-2,-23,-184,-136,-225,-146
98,375,277,-236,-89,326,-1,-22,-183,-136,-224,-145
99,374,275,-236,-88,325,0,-20,-181,-136,-224,-144
99,373,274,-236,-87,324,1,-19,-180,-136,-225,-144
99,372,273,-235,-87,323,1,-19,-182,-137,-225,-144
99,373,274,-236,-87,324,0,-23,-184,-138,-224,-144
99,374,275,-236,-88,325,-2,-24,-186,-140,-225,-145
99,375,276,-237,-88,326,-4,-25,-187,-142,-226,-147
98,376,278,-237,-90,327,-5,-25,-188,-142,-226,-147
98,376,278,-237,-90,327,-4,-26,-188,-140,-225,-146
98,376,278,-237,-90,327,-3,-25,-188,-139,-224,-145
99,374,275,-236,-88,325,-1,-24,-186,-139,-222,-144
99,372,273,-235,-87,323,0,-23,-185,-138,-224,-144
99,372,273,-235,-87,323,1,-23,-184,-137,-225,-143
99,372,273,-235,-87,323,1,-23,-185,-138,-225,-143
100,373,273,-236,-86,323,0,-24,-186,-139,-224,-143
99,374,275,-236,-88,325,-2,-25,-187,-140,-224,-145
99,375,276,-237,-88,326,-4,-27,-189,-142,-225,-148
99,376,277,-237,-89,327,-5,-27,-190,-142,-224,-147
99,376,277,-237,-89,327,-5,-27,-190,-141,-224,-145
99,375,276,-237,-88,326,-4,-26,-190,-140,-224,-145
99,374,275,-236,-88,325,-2,-25,-188,-137,-223,-144
100,373,273,-236,-86,323,-1,-24,-186,-136,-223,-143
100,372,272,-236,-86,322,0,-24,-185,-137,-222,-143
100,372,272,-236,-86,322,0,-24,-186,-138,-223,-143
99,372,273,-235,-87,323,0,-25,-187,-138,-224,-143
99,373,274,-236,-87,324,-1,-25,-188,-139,-224,-144
98,375,277,-236,-89,326,-2,-26,-189,-139,-223,-144
98,376,278,-237,-90,327,-3,-28,-190,-139,-223,-145
99,377,278,-238,-89,328,-3,-28,-190,-138,-222,-145
99,376,277,-237,-89,327,-3,-27,-190,-139,-221,-144
98,374,276,-236,-89,325,-2,-25,-189,-140,-220,-142
97,372,275,-234,-89,324,0,-24,-188,-138,-220,-141
98,372,274,-235,-88,323,0,-24,-187,-138,-220,-141
98,372,274,-235,-88,323,0,-24,-186,-138,-221,-141
98,372,274,-235,-88,323,0,-25,-188,-139,-222,-142
98,374,276,-236,-89,325,-2,-27,-190,-141,-223,-144
99,375,276,-237,-88,326,-4,-29,-193,-143,-222,-145
99,376,277,-237,-89,327,-4,-30,-193,-143,-220,-144
99,376,277,-237,-89,327,-4,-29,-193,-142,-221,-143
99,375,276,-237,-88,326,-4,-29,-193,-141,-221,-143
99,374,275,-236,-88,325,-2,-27,-191,-139,-220,-143
99,372,273,-235,-87,323,-1,-26,-190,-140,-219,-141
99,372,273,-235,-87,323,-1,-25,-190,-140,-220,-140
100,373,273,-236,-86,323,-1,-27,-190,-140,-220,-142
100,373,273,-236,-86,323,-1,-28,-190,-139,-220,-143
100,374,274,-237,-87,324,-3,-28,-192,-140,-221,-142
100,375,275,-237,-87,325,-3,-29,-193,-141,-221,-143
100,376,276,-238,-88,326,-4,-29,-193,-141,-220,-144
100,376,276,-238,-88,326,-4,-29,-193,-139,-219,-143
99,376,277,-237,-89,327,-4,-30,-193,-141,-220,-141
99,375,276,-237,-88,326,-3,-30,-192,-142,-220,-140
99,374,275,-236,-88,325,-1,-27,-189,-141,-219,-138
100,372,272,-236,-86,322,0,-25,-188,-140,-220,-139
99,372,273,-235,-87,323,0,-26,-189,-140,-221,-140
99,373,274,-236,-87,324,0,-27,-190,-140,-221,-141
98,375,277,-236,-89,326,-1,-29,-192,-141,-221,-142
98,376,278,-237,-90,327,-3,-31,-194,-142,-221,-143
98,376,278,-237,-90,327,-4,-31,-196,-142,-220,-143
97,376,279,-236,-91,328,-4,-31,-196,-143,-219,-141
97,375,278,-236,-90,327,-4,-30,-196,-144,-219,-141
97,374,277,-235,-90,326,-2,-29,-194,-143,-219,-141
98,373,275,-235,-88,324,-1,-28,-192,-142,-218,-140
99,372,273,-235,-87,323,0,-27,-192,-143,-219,-139
99,372,273,-235,-87,323,-1,-28,-192,-144,-220,-139
99,372,273,-235,-87,323,-2,-28,-193,-143,-220,-140
98,373,275,-235,-88,324,-3,-28,-194,-142,-220,-141
98,374,276,-236,-89,325,-3,-28,-194,-142,-220,-141
98,375,277,-236,-89,326,-4,-30,-195,-142,-220,-142
99,375,276,-237,-88,326,-5,-32,-197,-143,-220,-142
99,375,276,-237,-88,326,-5,-31,-196,-142,-219,-141
99,374,275,-236,-88,325,-3,-29,-194,-141,-218,-140
98,373,275,-235,-88,324,-1,-28,-192,-141,-219,-139
98,372,274,-235,-88,323,1,-27,-190,-140,-218,-137
98,373,275,-235,-88,324,0,-28,-190,-142,-219,-138
98,373,275,-235,-88,324,-1,-29,-192,-142,-219,-139
99,373,274,-236,-87,324,-2,-30,-194,-143,-219,-139
99,375,276,-237,-88,326,-4,-31,-197,-144,-219,-141
98,377,279,-237,-90,328,-4,-32,-197,-144,-219,-142
98,376,278,-237,-90,327,-4,-32,-197,-144,-218,-141
98,375,277,-236,-89,326,-3,-31,-196,-143,-217,-139
98,374,276,-236,-89,325,-2,-30,-196,-144,-217,-140
99,373,274,-236,-87,324,-1,-29,-195,-142,-218,-138
99,372,273,-235,-87,323,0,-29,-193,-142,-218,-137
99,372,273,-235,-87,323,-1,-29,-193,-143,-219,-138
98,373,275,-235,-88,324,-2,-30,-193,-144,-219,-139
96,374,278,-235,-91,326,-2,-30,-193,-143,-219,-139
97,375,278,-236,-90,327,-3,-32,-195,-144,-219,-141
98,376,278,-237,-90,327,-4,-34,-197,-145,-219,-142
98,376,278,-237,-90,327,-4,-33,-197,-144,-218,-141
99,375,276,-237,-88,326,-3,-31,-196,-144,-218,-140
99,374,275,-236,-88,325,-1,-29,-195,-143,-217,-138
99,372,273,-235,-87,323,-1,-29,-194,-143,-217,-138
98,371,273,-234,-87,322,1,-28,-193,-143,-217,-137
99,372,273,-235,-87,323,0,-29,-194,-144,-219,-138
99,373,274,-236,-87,324,0,-29,-195,-144,-219,-138
98,374,276,-236,-89,325,-1,-30,-196,-144,-219,-139
98,376,278,-237,-90,327,-4,-32,-197,-145,-219,-140
99,377,278,-238,-89,328,-4,-33,-197,-144,-218,-141
99,376,277,-237,-89,327,-4,-33,-198,-143,-219,-141
99,375,276,-237,-88,326,-3,-32,-198,-143,-220,-140
99,374,275,-236,-88,325,-1,-31,-197,-141,-218,-139
99,373,274,-236,-87,324,0,-30,-195,-141,-217,-138
100,373,273,-236,-86,323,1,-29,-194,-141,-218,-138
"
		100","
		374","
		274","
		-237","
		-87","
		324","
		1","
		-30","
		-193","
		-142","
		-219","
		-138"
100,374,274,-237,-87,324,0,-30,-192,-142,-218,-138
99,375,276,-237,-88,326,-2,-32,-194,-144,-219,-139
97,376,279,-236,-91,328,-3,-32,-195,-144,-219,-139
98,377,279,-237,-90,328,-4,-32,-197,-146,-219,-141
98,377,279,-237,-90,328,-3,-32,-197,-146,-218,-141
98,375,277,-236,-89,326,-2,-31,-197,-145,-218,-139
97,373,276,-235,-89,325,-1,-31,-197,-144,-217,-138
98,371,273,-234,-87,322,0,-30,-196,-144,-218,-138
98,371,273,-234,-87,322,2,-30,-195,-145,-218,-137
97,372,275,-234,-89,324,2,-30,-194,-145,-218,-137
97,372,275,-234,-89,324,1,-30,-194,-145,-218,-137
98,374,276,-236,-89,325,-1,-31,-197,-146,-219,-139
98,376,278,-237,-90,327,-3,-32,-198,-147,-219,-141
98,376,278,-237,-90,327,-4,-32,-198,-146,-219,-141
98,376,278,-237,-90,327,-4,-33,-199,-146,-219,-142
99,375,276,-237,-88,326,-3,-32,-199,-146,-219,-140
99,374,275,-236,-88,325,0,-30,-196,-145,-217,-139
97,373,276,-235,-89,325,1,-29,-195,-144,-217,-138
96,372,276,-234,-90,324,1,-29,-194,-143,-218,-138
98,372,274,-235,-88,323,2,-29,-194,-142,-218,-137
99,373,274,-236,-87,324,0,-30,-194,-143,-219,-138
99,375,276,-237,-88,326,-3,-32,-197,-145,-220,-140
97,376,279,-236,-91,328,-3,-33,-198,-146,-219,-140
97,376,279,-236,-91,328,-3,-33,-199,-146,-218,-140
98,377,279,-237,-90,328,-4,-33,-201,-147,-220,-143
98,376,278,-237,-90,327,-3,-33,-200,-148,-220,-142
97,374,277,-235,-90,326,-1,-32,-197,-147,-218,-138
98,373,275,-235,-88,324,1,-31,-195,-146,-216,-137
98,372,274,-235,-88,323,2,-29,-193,-144,-216,-136
98,372,274,-235,-88,323,2,-29,-194,-144,-218,-136
97,373,276,-235,-89,325,1,-29,-195,-144,-218,-137
97,374,277,-235,-90,326,-1,-30,-197,-145,-218,-139
97,375,278,-236,-90,327,-2,-30,-198,-146,-217,-139
98,376,278,-237,-90,327,-4,-33,-200,-148,-218,-140
98,376,278,-237,-90,327,-4,-34,-200,-148,-218,-140
98,375,277,-236,-89,326,-2,-32,-198,-146,-217,-139
99,374,275,-236,-88,325,-1,-31,-197,-146,-217,-138
99,373,274,-236,-87,324,1,-30,-195,-145,-217,-137
99,373,274,-236,-87,324,2,-29,-194,-144,-218,-137
99,372,273,-235,-87,323,1,-29,-194,-144,-217,-137
99,373,274,-236,-87,324,0,-30,-194,-144,-217,-137
99,375,276,-237,-88,326,-1,-31,-196,-144,-218,-138
99,376,277,-237,-89,327,-2,-32,-197,-144,-218,-141
98,377,279,-237,-90,328,-2,-33,-198,-144,-218,-142
97,376,279,-236,-91,328,-2,-33,-198,-144,-217,-140
97,376,279,-236,-91,328,-3,-32,-198,-146,-217,-138
98,374,276,-236,-89,325,-1,-31,-198,-147,-217,-137
98,373,275,-235,-88,324,0,-31,-197,-145,-217,-137
98,372,274,-235,-88,323,2,-29,-194,-143,-217,-136
98,372,274,-235,-88,323,2,-29,-195,-143,-217,-136
98,372,274,-235,-88,323,2,-29,-195,-144,-217,-136
99,373,274,-236,-87,324,0,-31,-196,-145,-218,-137
99,375,276,-237,-88,326,-2,-33,-197,-146,-219,-140
99,375,276,-237,-88,326,-3,-34,-198,-146,-218,-140
98,376,278,-237,-90,327,-3,-33,-199,-145,-218,-140
98,375,277,-236,-89,326,-1,-31,-197,-144,-216,-138
97,374,277,-235,-90,326,0,-31,-195,-144,-216,-138
96,373,277,-234,-90,325,2,-30,-194,-144,-216,-136
97,371,274,-234,-88,323,2,-29,-194,-145,-216,-136
98,372,274,-235,-88,323,2,-29,-195,-146,-216,-136
98,372,274,-235,-88,323,2,-29,-196,-146,-215,-135
97,373,276,-235,-89,325,1,-30,-198,-147,-215,-136
97,374,277,-235,-90,326,-2,-32,-200,-149,-216,-138
97,375,278,-236,-90,327,-2,-33,-200,-149,-215,-139
97,376,279,-236,-91,328,-1,-33,-200,-147,-214,-139
98,375,277,-236,-89,326,-1,-32,-199,-147,-215,-139
99,373,274,-236,-87,324,-1,-31,-197,-147,-216,-139
100,373,273,-236,-86,323,1,-30,-196,-147,-216,-138
100,373,273,-236,-86,323,2,-29,-194,-145,-215,-136
100,373,273,-236,-86,323,3,-28,-193,-145,-215,-134
100,374,274,-237,-87,324,1,-29,-194,-146,-216,-135
98,375,277,-236,-89,326,0,-30,-195,-146,-215,-136
97,375,278,-236,-90,327,-2,-32,-198,-145,-215,-138
96,375,279,-235,-91,327,-3,-33,-199,-146,-215,-139
97,375,278,-236,-90,327,-2,-33,-199,-148,-215,-139
99,375,276,-237,-88,326,-2,-32,-199,-147,-215,-140
99,374,275,-236,-88,325,-1,-29,-197,-145,-214,-137
99,373,274,-236,-87,324,0,-29,-196,-146,-215,-136
99,373,274,-236,-87,324,1,-30,-195,-146,-216,-136
99,373,274,-236,-87,324,2,-29,-194,-146,-216,-136
98,374,276,-236,-89,325,1,-30,-196,-147,-216,-136
97,374,277,-235,-90,326,0,-32,-197,-149,-215,-137
98,375,277,-236,-89,326,-1,-33,-198,-148,-215,-138
99,376,277,-237,-89,327,-3,-34,-200,-149,-215,-138
99,376,277,-237,-89,327,-2,-33,-201,-148,-215,-138
99,375,276,-237,-88,326,-2,-32,-200,-147,-214,-138
99,374,275,-236,-88,325,0,-30,-197,-146,-213,-136
99,373,274,-236,-87,324,0,-29,-195,-145,-214,-135
99,371,272,-235,-86,322,2,-28,-194,-144,-214,-135
100,371,271,-235,-85,321,1,-29,-195,-145,-214,-137
100,372,272,-236,-86,322,1,-29,-196,-145,-214,-137
100,373,273,-236,-86,323,1,-30,-197,-145,-215,-137
99,375,276,-237,-88,326,-1,-33,-199,-147,-216,-140
99,377,278,-238,-89,328,-2,-34,-200,-147,-216,-140
99,376,277,-237,-89,327,-2,-34,-200,-148,-215,-139
99,374,275,-236,-88,325,-1,-32,-198,-147,-213,-137
99,372,273,-235,-87,323,-1,-31,-196,-146,-214,-136
99,371,272,-235,-86,322,1,-29,-194,-144,-214,-134
100,371,271,-235,-85,321,3,-29,-195,-145,-214,-135
100,371,271,-235,-85,321,3,-28,-194,-144,-215,-135
100,372,272,-236,-86,322,2,-28,-195,-144,-215,-136
99,373,274,-236,-87,324,0,-30,-197,-145,-214,-137
99,374,275,-236,-88,325,-1,-32,-198,-146,-213,-137
99,375,276,-237,-88,326,-3,-33,-199,-148,-214,-138
100,376,276,-238,-88,326,-2,-32,-198,-148,-214,-137
101,375,274,-238,-86,325,-1,-31,-197,-147,-213,-136
100,374,274,-237,-87,324,0,-30,-196,-146,-213,-137
98,372,274,-235,-88,323,2,-27,-194,-144,-212,-136
97,370,273,-233,-88,322,4,-26,-193,-144,-212,-134
97,370,273,-233,-88,322,4,-26,-193,-144,-213,-134
99,372,273,-235,-87,323,1,-29,-195,-147,-215,-138
99,373,274,-236,-87,324,0,-30,-197,-147,-215,-139
98,374,276,-236,-89,325,0,-31,-199,-148,-214,-138
98,374,276,-236,-89,325,0,-32,-199,-149,-214,-137
99,374,275,-236,-88,325,0,-32,-199,-149,-214,-137
100,373,273,-236,-86,323,0,-31,-198,-148,-214,-137
100,372,272,-236,-86,322,0,-30,-197,-148,-214,-136
100,371,271,-235,-85,321,1,-29,-196,-148,-214,-134
100,370,270,-235,-85,320,3,-28,-194,-147,-214,-134
100,370,270,-235,-85,320,3,-29,-195,-147,-215,-135
99,370,271,-234,-86,321,2,-30,-196,-147,-215,-135
98,372,274,-235,-88,323,2,-30,-195,-147,-214,-135
98,374,276,-236,-89,325,0,-31,-197,-148,-213,-136
98,375,277,-236,-89,326,0,-31,-198,-148,-213,-137
99,375,276,-237,-88,326,-2,-32,-199,-149,-216,-138
99,374,275,-236,-88,325,0,-31,-197,-149,-214,-137
99,373,274,-236,-87,324,1,-31,-197,-149,-213,-136
99,371,272,-235,-86,322,2,-29,-196,-147,-213,-135
100,370,270,-235,-85,320,3,-28,-196,-147,-213,-134
100,370,270,-235,-85,320,2,-28,-197,-147,-214,-134
99,371,272,-235,-86,322,2,-28,-197,-147,-214,-134
99,372,273,-235,-87,323,0,-31,-198,-149,-215,-136
100,373,273,-236,-86,323,-1,-32,-198,-149,-214,-136
100,374,274,-237,-87,324,-2,-34,-199,-150,-215,-137
99,373,274,-236,-87,324,-1,-33,-199,-149,-214,-136
98,372,274,-235,-88,323,1,-31,-199,-149,-213,-136
100,371,271,-235,-85,321,0,-30,-198,-150,-214,-137
100,370,270,-235,-85,320,2,-28,-195,-150,-213,-136
98,369,271,-233,-86,320,3,-27,-194,-149,-213,-134
98,368,270,-233,-86,319,3,-27,-195,-148,-213,-133
99,368,269,-233,-85,319,3,-27,-195,-147,-212,-133
99,370,271,-234,-86,321,1,-29,-196,-148,-213,-135
100,372,272,-236,-86,322,0,-31,-197,-148,-214,-137
99,373,274,-236,-87,324,-1,-32,-198,-148,-214,-138
99,373,274,-236,-87,324,-1,-31,-199,-149,-214,-137
99,373,274,-236,-87,324,0,-31,-198,-149,-212,-136
100,372,272,-236,-86,322,1,-30,-196,-146,-211,-135
100,371,271,-235,-85,321,2,-28,-195,-146,-212,-135
100,369,269,-234,-84,319,4,-26,-195,-146,-212,-134
99,368,269,-233,-85,319,4,-26,-194,-146,-211,-133
98,369,271,-233,-86,320,3,-27,-194,-145,-212,-133
99,370,271,-234,-86,321,1,-29,-196,-146,-212,-134
99,372,273,-235,-87,323,-1,-31,-198,-149,-213,-136
98,374,276,-236,-89,325,-2,-33,-199,-149,-212,-136
97,375,278,-236,-90,327,-2,-33,-199,-149,-212,-136
98,375,277,-236,-89,326,-1,-32,-197,-148,-212,-135
99,374,275,-236,-88,325,0,-30,-195,-148,-213,-135
100,373,273,-236,-86,323,2,-29,-194,-148,-213,-135
101,372,271,-236,-85,322,2,-28,-194,-148,-212,-135
101,371,270,-236,-84,321,2,-28,-194,-148,-212,-135
100,371,271,-235,-85,321,2,-28,-195,-147,-213,-134
100,372,272,-236,-86,322,1,-29,-196,-146,-213,-135
100,372,272,-236,-86,322,1,-30,-198,-147,-214,-136
100,373,273,-236,-86,323,1,-29,-197,-147,-214,-138
100,373,273,-236,-86,323,2,-28,-196,-146,-213,-136
101,372,271,-236,-85,322,3,-26,-194,-144,-211,-135
101,370,269,-235,-84,320,5,-24,-191,-143,-211,-134
102,368,266,-235,-82,317,8,-20,-187,-141,-211,-133
103,368,265,-235,-81,317,9,-19,-185,-141,-211,-133
105,368,263,-236,-79,316,11,-16,-182,-138,-209,-131
107,370,263,-238,-78,317,10,-15,-181,-138,-209,-132
109,372,263,-240,-77,318,10,-14,-180,-138,-208,-131
110,373,263,-241,-76,318,9,-13,-180,-138,-206,-131
111,374,263,-242,-76,319,8,-12,-180,-136,-205,-131
112,374,262,-243,-75,318,7,-11,-180,-135,-207,-132
114,373,259,-243,-72,316,8,-9,-179,-133,-206,-131
115,371,256,-243,-70,314,8,-7,-177,-132,-204,-129
116,370,254,-243,-69,312,9,-5,-176,-131,-204,-128
117,371,254,-244,-68,313,11,-4,-174,-129,-204,-127
117,372,255,-244,-69,314,14,-3,-174,-129,-205,-127
116,373,257,-244,-70,315,18,-1,-173,-128,-205,-128
114,374,260,-244,-73,317,20,0,-173,-129,-205,-127
113,374,261,-243,-74,318,21,0,-175,-131,-206,-129
113,374,261,-243,-74,318,21,-1,-176,-132,-207,-130
113,373,260,-243,-73,317,19,-1,-176,-133,-208,-132
115,374,259,-244,-72,317,15,-2,-176,-134,-208,-132
117,374,257,-245,-70,316,12,-1,-175,-133,-206,-129
116,373,257,-244,-70,315,10,-1,-176,-134,-206,-128
115,372,257,-243,-71,315,7,-5,-179,-136,-206,-128
114,372,258,-243,-72,315,2,-13,-183,-139,-209,-131
112,372,260,-242,-74,316,-3,-21,-188,-141,-209,-131
111,374,263,-242,-76,319,-7,-28,-193,-143,-208,-130
110,376,266,-243,-78,321,-9,-33,-198,-145,-210,-131
109,374,265,-241,-78,320,-8,-35,-201,-146,-212,-133
108,372,264,-240,-78,318,-8,-37,-203,-148,-213,-134
107,370,263,-238,-78,317,-6,-35,-203,-148,-213,-134
107,367,260,-237,-76,314,-4,-32,-202,-148,-212,-133
108,365,257,-236,-74,311,-2,-30,-199,-148,-211,-132
109,364,255,-236,-73,310,0,-28,-196,-146,-212,-131
108,365,257,-236,-74,311,1,-27,-193,-143,-212,-131
107,367,260,-237,-76,314,-1,-29,-195,-145,-213,-133
107,368,261,-237,-77,315,-2,-31,-197,-147,-214,-135
107,370,263,-238,-78,317,-5,-33,-200,-149,-216,-138
107,372,265,-239,-79,319,-6,-34,-201,-149,-213,-138
106,373,267,-239,-80,320,-6,-35,-202,-150,-210,-134
105,372,267,-238,-81,320,-5,-35,-203,-151,-212,-133
105,370,265,-237,-80,318,-3,-34,-202,-152,-214,-134
104,367,263,-235,-79,315,-1,-33,-202,-152,-215,-136
101,364,263,-232,-81,314,2,-33,-200,-153,-216,-136
99,364,265,-231,-83,315,3,-31,-198,-152,-216,-138
99,368,269,-233,-85,319,2,-31,-197,-150,-215,-138
98,369,271,-233,-86,320,1,-33,-198,-149,-214,-135
97,369,272,-233,-87,321,-1,-35,-201,-150,-215,-135
98,369,271,-233,-86,320,-3,-36,-203,-151,-216,-138
98,369,271,-233,-86,320,-2,-35,-203,-152,-216,-138
98,368,270,-233,-86,319,-1,-34,-203,-153,-215,-138
98,367,269,-232,-85,318,0,-35,-203,-154,-216,-137
98,365,267,-231,-84,316,1,-34,-201,-153,-215,-136
99,365,266,-232,-83,316,2,-34,-200,-152,-215,-137
98,366,268,-232,-85,317,3,-34,-199,-152,-216,-137
98,367,269,-232,-85,318,1,-35,-200,-153,-217,-137
98,368,270,-233,-86,319,1,-35,-202,-153,-216,-135
98,369,271,-233,-86,320,0,-36,-204,-154,-215,-137
98,369,271,-233,-86,320,-1,-37,-205,-155,-216,-139
98,369,271,-233,-86,320,-1,-36,-205,-155,-216,-138
97,369,272,-233,-87,321,0,-36,-204,-155,-215,-137
97,368,271,-232,-87,320,1,-36,-202,-153,-214,-137
97,366,269,-231,-86,318,4,-34,-199,-150,-215,-136
97,365,268,-231,-85,317,4,-33,-198,-149,-216,-136
97,366,269,-231,-86,318,4,-32,-198,-150,-215,-136
98,366,268,-232,-85,317,3,-32,-197,-151,-214,-135
98,367,269,-232,-85,318,2,-33,-199,-153,-215,-135
98,369,271,-233,-86,320,1,-33,-199,-151,-215,-136
99,370,271,-234,-86,321,0,-35,-201,-151,-215,-138
98,370,272,-234,-87,321,0,-35,-201,-151,-214,-138
97,369,272,-233,-87,321,1,-34,-201,-150,-213,-137
97,367,270,-232,-86,319,4,-33,-199,-148,-213,-134
97,366,269,-231,-86,318,5,-32,-198,-148,-213,-134
96,365,269,-230,-86,317,6,-30,-196,-147,-213,-133
97,365,268,-231,-85,317,5,-31,-196,-149,-214,-134
98,366,268,-232,-85,317,4,-31,-198,-150,-214,-135
98,367,269,-232,-85,318,2,-33,-200,-152,-215,-137
97,369,272,-233,-87,321,1,-33,-200,-151,-214,-137
97,371,274,-234,-88,323,0,-33,-200,-151,-215,-137
97,371,274,-234,-88,323,0,-34,-200,-152,-215,-137
98,370,272,-234,-87,321,1,-35,-200,-153,-215,-137
99,368,269,-233,-85,319,3,-33,-198,-151,-213,-136
99,367,268,-233,-84,318,4,-31,-197,-150,-213,-135
99,365,266,-232,-83,316,5,-29,-195,-148,-212,-133
99,366,267,-232,-84,317,5,-30,-196,-149,-214,-134
99,367,268,-233,-84,318,4,-31,-197,-148,-214,-134
99,368,269,-233,-85,319,4,-31,-197,-147,-213,-135
99,370,271,-234,-86,321,2,-33,-199,-149,-214,-136
99,371,272,-235,-86,322,1,-34,-200,-151,-214,-136
99,371,272,-235,-86,322,0,-34,-200,-150,-212,-137
99,370,271,-234,-86,321,0,-33,-199,-149,-213,-138
99,369,270,-234,-85,320,2,-32,-197,-148,-214,-138
99,368,269,-233,-85,319,4,-30,-194,-146,-212,-135
98,367,269,-232,-85,318,5,-29,-193,-145,-211,-133
97,366,269,-231,-86,318,6,-28,-192,-146,-211,-132
98,368,270,-233,-86,319,4,-29,-193,-147,-212,-133
98,370,272,-234,-87,321,3,-30,-194,-148,-212,-135
98,371,273,-234,-87,322,2,-32,-195,-148,-212,-136
98,372,274,-235,-88,323,1,-33,-197,-149,-213,-136
98,372,274,-235,-88,323,2,-31,-196,-148,-213,-136
99,371,272,-235,-86,322,3,-29,-194,-146,-212,-136
99,368,269,-233,-85,319,7,-25,-192,-146,-214,-136
97,365,268,-231,-85,317,12,-19,-188,-147,-216,-137
94,364,270,-229,-88,317,19,-9,-177,-145,-217,-138
93,366,273,-229,-90,320,24,-1,-165,-143,-219,-141
92,370,278,-231,-93,324,30,8,-150,-138,-220,-143
92,374,282,-233,-95,328,35,17,-130,-129,-218,-144
91,380,289,-235,-99,335,35,22,-108,-114,-212,-141
94,389,295,-241,-100,342,32,24,-84,-93,-203,-135
99,401,302,-250,-101,352,30,29,-51,-62,-186,-124
106,415,309,-260,-101,362,27,37,-14,-24,-168,-113
117,429,312,-273,-97,371,21,42,18,18,-143,-98
136,446,310,-291,-87,378,9,49,44,65,-111,-75
160,469,309,-314,-74,389,-8,58,60,112,-72,-44
187,502,315,-344,-64,409,-34,44,51,157,-26,-7
209,545,336,-377,-63,441,-73,-23,-12,197,32,39
224,596,372,-410,-74,484,-121,-134,-137,223,97,91
235,649,414,-442,-89,532,-168,-252,-294,240,166,146
244,700,456,-472,-106,578,-217,-367,-450,263,238,203
249,747,498,-498,-124,623,-266,-491,-602,283,303,256
250,782,532,-516,-141,657,-308,-618,-753,274,353,301
249,795,546,-522,-148,671,-336,-726,-889,223,374,325
239,776,537,-507,-149,657,-339,-788,-977,149,360,323
214,731,517,-472,-151,624,-317,-802,-1025,55,313,297
181,672,491,-426,-155,582,-275,-780,-1048,-69,240,255
153,606,453,-379,-150,530,-235,-734,-1048,-215,154,203
131,546,415,-338,-142,481,-205,-681,-1024,-349,74,152
113,501,388,-307,-137,445,-183,-624,-972,-441,6,109
103,463,360,-283,-128,412,-160,-544,-887,-477,-58,66
99,415,316,-257,-108,366,-126,-445,-779,-473,-126,14
95,361,266,-228,-85,314,-82,-353,-677,-444,-196,-49
90,317,227,-203,-68,272,-38,-281,-587,-393,-248,-104
93,290,197,-191,-52,244,-10,-221,-506,-335,-273,-137
104,283,179,-193,-37,231,-3,-166,-431,-284,-278,-151
"
		115","
		293","
		178","
		-204","
		-31","
		236","
		-10","
		-124","
		-366","
		-240","
		-269","
		-151"
118,311,193,-214,-37,252,-19,-94,-314,-205,-257,-149
120,328,208,-224,-44,268,-25,-72,-273,-177,-247,-147
123,345,222,-234,-49,284,-29,-57,-240,-156,-236,-142
124,362,238,-243,-57,300,-31,-47,-210,-134,-223,-134
120,371,251,-245,-65,311,-28,-38,-189,-118,-215,-129
116,368,252,-242,-68,310,-21,-30,-180,-115,-216,-131
113,363,250,-238,-68,307,-12,-21,-171,-113,-217,-134
113,361,248,-237,-67,305,-7,-12,-161,-109,-219,-138
112,359,247,-235,-67,303,-2,-3,-153,-106,-221,-140
110,357,247,-233,-68,302,1,2,-148,-108,-223,-141
108,358,250,-233,-71,304,2,3,-147,-112,-225,-142
108,359,251,-233,-71,305,2,6,-144,-113,-226,-143
108,359,251,-233,-71,305,2,9,-142,-114,-226,-145
108,358,250,-233,-71,304,3,9,-141,-113,-229,-149
108,357,249,-232,-70,303,3,9,-140,-112,-234,-152
107,355,248,-231,-70,302,4,11,-136,-111,-234,-153
106,354,248,-230,-71,301,8,14,-133,-109,-232,-151
106,352,246,-229,-70,299,11,17,-129,-107,-232,-149
107,351,244,-229,-68,298,12,20,-126,-107,-234,-151
107,352,245,-229,-69,299,12,22,-124,-107,-236,-153
106,354,248,-230,-71,301,12,23,-123,-107,-233,-151
106,356,250,-231,-72,303,10,23,-123,-109,-231,-153
106,357,251,-231,-72,304,9,24,-122,-111,-231,-152
105,357,252,-231,-73,305,10,24,-122,-111,-234,-152
103,355,252,-229,-74,304,11,25,-121,-109,-234,-152
104,352,248,-228,-72,300,10,24,-122,-109,-235,-155
105,350,245,-227,-70,298,14,26,-119,-108,-234,-152
106,348,242,-227,-68,295,16,28,-116,-106,-234,-150
106,348,242,-227,-68,295,16,29,-113,-105,-233,-151
106,350,244,-228,-69,297,15,29,-113,-105,-232,-151
106,352,246,-229,-70,299,15,30,-112,-105,-231,-150
106,353,247,-229,-70,300,13,30,-113,-107,-231,-152
105,353,248,-229,-71,301,14,31,-111,-107,-229,-151
105,353,248,-229,-71,301,13,30,-112,-108,-231,-152
105,352,247,-228,-71,300,13,29,-113,-109,-235,-154
105,349,244,-227,-69,297,14,30,-112,-108,-234,-155
106,347,241,-226,-67,294,14,30,-111,-106,-234,-154
106,346,240,-226,-67,293,16,32,-109,-104,-233,-151
106,347,241,-226,-67,294,17,33,-109,-103,-233,-151
107,348,241,-227,-67,295,18,35,-107,-102,-231,-150
107,350,243,-228,-68,297,17,34,-106,-103,-230,-151
106,351,245,-228,-69,298,16,34,-105,-103,-231,-152
106,351,245,-228,-69,298,15,33,-105,-104,-232,-153
105,351,246,-228,-70,299,14,33,-106,-104,-232,-154
105,349,244,-227,-69,297,14,32,-105,-102,-232,-154
105,348,243,-226,-69,296,14,31,-105,-101,-233,-155
105,347,242,-226,-68,295,16,33,-104,-99,-232,-154
106,347,241,-226,-67,294,16,33,-105,-99,-233,-154
106,347,241,-226,-67,294,17,34,-104,-99,-233,-153
107,347,240,-227,-66,294,17,34,-102,-99,-233,-152
106,348,242,-227,-68,295,17,37,-102,-99,-232,-153
105,349,244,-227,-69,297,16,36,-102,-99,-232,-153
105,350,245,-227,-70,298,15,33,-103,-100,-233,-154
105,349,244,-227,-69,297,13,32,-103,-100,-235,-155
105,348,243,-226,-69,296,13,32,-103,-100,-237,-157
105,346,241,-225,-68,294,14,33,-102,-99,-237,-157
106,345,239,-225,-66,292,15,33,-102,-99,-237,-156
106,344,238,-225,-66,291,16,35,-100,-97,-236,-156
106,344,238,-225,-66,291,17,37,-98,-96,-237,-156
106,346,240,-226,-67,293,18,38,-97,-96,-237,-156
105,347,242,-226,-68,295,18,39,-96,-97,-237,-155
105,348,243,-226,-69,296,16,39,-98,-99,-237,-154
105,348,243,-226,-69,296,15,37,-99,-101,-238,-155
105,348,243,-226,-69,296,14,36,-100,-102,-240,-159
105,347,242,-226,-68,295,15,37,-99,-102,-242,-159
105,346,241,-225,-68,294,15,37,-99,-102,-243,-157
106,344,238,-225,-66,291,15,36,-98,-102,-241,-158
106,343,237,-224,-65,290,17,39,-96,-100,-240,-157
107,342,235,-224,-64,289,18,40,-94,-99,-242,-156
107,343,236,-225,-64,290,18,40,-95,-100,-241,-155
106,344,238,-225,-66,291,17,41,-95,-100,-240,-156
105,345,240,-225,-67,293,17,41,-96,-101,-241,-157
104,346,242,-225,-69,294,16,40,-97,-102,-244,-158
105,345,240,-225,-67,293,15,40,-99,-103,-245,-159
106,345,239,-225,-66,292,15,40,-99,-103,-246,-161
105,343,238,-224,-66,291,16,40,-98,-102,-246,-160
105,341,236,-223,-65,289,17,40,-96,-100,-246,-159
106,339,233,-222,-63,286,17,41,-95,-100,-247,-159
107,340,233,-223,-63,287,17,42,-94,-102,-250,-159
106,340,234,-223,-64,287,19,43,-93,-103,-248,-158
106,341,235,-223,-64,288,18,42,-94,-106,-248,-159
105,343,238,-224,-66,291,16,41,-95,-108,-250,-159
105,344,239,-224,-67,292,15,40,-97,-110,-252,-161
105,343,238,-224,-66,291,14,40,-98,-110,-252,-163
105,342,237,-223,-66,290,14,40,-99,-110,-253,-164
104,340,236,-222,-66,288,15,40,-98,-110,-254,-164
104,338,234,-221,-65,286,16,41,-96,-109,-255,-164
104,337,233,-220,-64,285,16,41,-96,-110,-257,-164
105,336,231,-220,-63,284,17,42,-96,-111,-258,-163
105,337,232,-221,-63,285,18,42,-96,-112,-256,-161
105,338,233,-221,-64,286,17,42,-96,-113,-256,-162
105,339,234,-222,-64,287,15,40,-99,-115,-259,-166
105,340,235,-222,-65,288,14,40,-100,-116,-259,-166
105,340,235,-222,-65,288,14,40,-101,-116,-259,-166
104,339,235,-221,-65,287,15,41,-100,-115,-260,-167
103,338,235,-220,-66,287,14,39,-101,-117,-263,-169
103,335,232,-219,-64,284,15,39,-100,-118,-264,-168
103,333,230,-218,-63,282,16,41,-98,-118,-262,-166
102,332,230,-217,-64,281,18,43,-96,-118,-261,-166
103,334,231,-218,-64,283,17,42,-97,-120,-262,-167
103,335,232,-219,-64,284,16,40,-99,-122,-264,-166
103,336,233,-219,-65,285,15,39,-101,-124,-264,-166
104,336,232,-220,-64,284,14,39,-102,-126,-266,-169
103,336,233,-219,-65,285,13,38,-104,-128,-267,-170
103,335,232,-219,-64,284,12,38,-105,-129,-269,-171
102,334,232,-218,-65,283,13,38,-106,-129,-270,-173
102,332,230,-217,-64,281,14,37,-105,-128,-270,-173
102,330,228,-216,-63,279,15,38,-103,-127,-271,-171
102,330,228,-216,-63,279,15,39,-103,-127,-272,-171
101,330,229,-215,-64,280,15,39,-102,-128,-271,-171
100,330,230,-215,-65,280,15,39,-102,-130,-272,-170
101,331,230,-216,-64,281,14,37,-104,-134,-273,-171
101,332,231,-216,-65,282,12,36,-107,-138,-276,-174
100,332,232,-216,-66,282,10,34,-111,-142,-279,-177
99,330,231,-214,-66,281,11,34,-111,-143,-280,-178
100,328,228,-214,-64,278,12,34,-111,-145,-281,-179
100,326,226,-213,-63,276,11,33,-112,-146,-283,-180
100,324,224,-212,-62,274,12,32,-111,-144,-283,-179
99,322,223,-210,-62,273,13,33,-110,-143,-283,-176
99,323,224,-211,-62,274,13,34,-111,-146,-284,-176
99,324,225,-211,-63,275,12,32,-114,-150,-287,-178
98,326,228,-212,-65,277,11,31,-116,-152,-288,-180
97,326,229,-211,-66,278,9,28,-118,-157,-290,-182
96,326,230,-211,-67,278,8,27,-121,-160,-292,-183
95,324,229,-209,-67,277,8,26,-124,-164,-294,-184
95,321,226,-208,-65,274,8,25,-125,-166,-296,-185
96,320,224,-208,-64,272,8,23,-126,-169,-299,-186
96,319,223,-207,-63,271,9,22,-128,-171,-302,-187
96,317,221,-206,-62,269,10,22,-128,-175,-302,-186
95,318,223,-206,-64,271,9,21,-130,-180,-303,-186
95,319,224,-207,-64,272,6,19,-132,-185,-307,-186
96,319,223,-207,-63,271,4,17,-135,-189,-310,-188
95,319,224,-207,-64,272,2,14,-138,-195,-312,-192
93,318,225,-205,-66,272,0,11,-143,-201,-315,-194
93,315,222,-204,-64,269,0,10,-147,-204,-319,-195
92,314,222,-203,-65,268,1,9,-149,-207,-320,-197
91,312,221,-201,-65,267,1,8,-149,-209,-323,-198
91,309,218,-200,-63,264,0,6,-150,-212,-325,-198
91,307,216,-199,-62,262,1,5,-150,-215,-327,-197
91,307,216,-199,-62,262,1,3,-152,-219,-330,-198
90,308,218,-199,-64,263,-1,1,-156,-224,-332,-197
91,309,218,-200,-63,264,-4,-3,-160,-231,-335,-198
91,309,218,-200,-63,264,-6,-6,-165,-238,-339,-200
91,308,217,-199,-63,263,-8,-10,-171,-243,-343,-205
90,307,217,-198,-63,262,-9,-12,-174,-246,-345,-206
89,306,217,-197,-64,262,-9,-14,-176,-251,-348,-207
89,304,215,-196,-63,260,-10,-16,-177,-256,-351,-207
89,303,214,-196,-62,259,-8,-15,-177,-258,-352,-206
90,302,212,-196,-61,257,-8,-16,-178,-261,-354,-206
90,302,212,-196,-61,257,-9,-18,-182,-265,-357,-207
90,302,212,-196,-61,257,-11,-20,-186,-270,-359,-208
89,301,212,-195,-61,257,-13,-21,-188,-274,-361,-210
90,301,211,-195,-60,256,-14,-23,-190,-276,-364,-211
92,302,210,-197,-59,256,-16,-25,-192,-278,-367,-213
92,301,209,-196,-58,255,-17,-26,-192,-279,-368,-215
92,300,208,-196,-58,254,-16,-25,-191,-279,-370,-217
93,298,205,-195,-56,252,-15,-25,-189,-278,-372,-217
94,297,203,-195,-54,250,-14,-24,-186,-277,-372,-216
96,295,199,-195,-51,247,-13,-22,-184,-276,-372,-214
97,295,198,-196,-50,247,-12,-20,-182,-275,-372,-213
98,297,199,-197,-50,248,-13,-19,-181,-275,-372,-213
99,298,199,-198,-50,249,-13,-18,-180,-274,-373,-216
99,299,200,-199,-50,250,-13,-15,-178,-271,-372,-217
100,300,200,-200,-50,250,-13,-14,-177,-270,-371,-217
100,300,200,-200,-50,250,-12,-12,-173,-267,-368,-214
