I,II,III,aVR,aVL,aVF,V1,V2,V3,V4,V5,V6
-31,152,183,-60,-107,168,46,-20,6,-63,-131,71
-31,152,183,-60,-107,168,46,-19,6,-62,-131,72
-30,153,183,-61,-106,168,45,-19,6,-63,-131,71
-30,153,183,-61,-106,168,45,-18,6,-62,-131,72
-29,153,182,-62,-105,168,45,-17,6,-62,-130,73
-29,153,182,-62,-105,168,45,-17,6,-62,-129,74
-28,154,182,-63,-105,168,43,-17,5,-63,-129,73
-28,154,182,-63,-105,168,43,-17,4,-63,-128,74
-27,154,181,-63,-104,168,43,-17,4,-63,-128,74
-27,153,180,-63,-103,167,43,-17,4,-63,-128,75
-26,154,180,-64,-103,167,43,-17,4,-62,-127,75
-26,154,180,-64,-103,167,43,-16,4,-61,-126,76
-25,155,180,-65,-102,168,43,-16,3,-61,-126,76
-25,155,180,-65,-102,168,43,-15,3,-61,-125,77
-24,155,179,-65,-101,167,43,-15,3,-60,-124,78
-24,155,179,-65,-101,167,42,-14,3,-60,-123,79
-23,155,178,-66,-100,167,41,-15,1,-61,-123,79
-22,155,177,-66,-99,166,40,-16,0,-62,-123,80
-22,155,177,-66,-99,166,39,-16,0,-62,-122,80
-22,155,177,-66,-99,166,39,-16,-1,-62,-121,81
-21,155,176,-67,-98,166,38,-16,-2,-62,-121,81
-21,155,176,-67,-98,166,38,-16,-3,-61,-120,81
-20,155,175,-67,-97,165,37,-16,-5,-61,-120,81
-19,156,175,-68,-97,166,37,-16,-6,-60,-119,83
-18,156,174,-69,-96,165,35,-16,-7,-60,-118,83
-17,157,174,-70,-95,166,35,-16,-9,-60,-117,85
-16,157,173,-70,-94,165,34,-16,-11,-60,-116,86
-15,158,173,-71,-94,166,33,-17,-13,-60,-114,88
-14,158,172,-72,-93,165,31,-18,-16,-61,-114,88
-13,158,171,-72,-92,165,31,-18,-19,-61,-113,89
-12,158,170,-73,-91,164,30,-18,-21,-61,-112,90
-12,159,171,-73,-91,165,28,-20,-25,-62,-112,89
-11,159,170,-74,-90,165,28,-20,-27,-62,-110,91
-10,160,170,-75,-90,165,26,-21,-31,-63,-110,91
-9,161,170,-76,-89,166,25,-22,-34,-63,-108,93
-8,161,169,-76,-88,165,23,-24,-38,-65,-108,94
-8,162,170,-77,-89,166,22,-25,-42,-65,-106,96
-7,162,169,-77,-88,166,21,-26,-45,-65,-104,98
-6,162,168,-78,-87,165,19,-28,-50,-66,-104,99
-5,162,167,-78,-86,165,17,-29,-54,-67,-102,101
-4,162,166,-79,-85,164,17,-31,-58,-66,-101,102
-4,163,167,-79,-85,165,14,-33,-64,-68,-100,102
-3,163,166,-80,-84,165,13,-34,-68,-68,-99,103
-2,164,166,-81,-84,165,11,-36,-73,-69,-98,104
-2,164,166,-81,-84,165,10,-37,-78,-70,-96,106
-1,165,166,-82,-83,166,9,-39,-82,-70,-94,108
0,165,165,-82,-82,165,7,-41,-87,-72,-93,108
0,165,165,-82,-82,165,6,-43,-92,-72,-91,110
1,165,164,-83,-81,165,5,-45,-96,-72,-90,112
1,165,164,-83,-81,165,4,-47,-100,-73,-89,113
2,166,164,-84,-81,165,2,-50,-106,-74,-89,113
2,166,164,-84,-81,165,2,-52,-110,-74,-89,113
2,166,164,-84,-81,165,1,-55,-114,-74,-88,114
3,166,163,-84,-80,165,0,-57,-118,-75,-88,115
3,166,163,-84,-80,165,0,-59,-121,-76,-87,116
3,166,163,-84,-80,165,-1,-61,-124,-77,-87,117
2,166,164,-84,-81,165,-2,-63,-127,-78,-87,117
2,165,163,-83,-80,164,-2,-64,-129,-78,-86,118
1,165,164,-83,-81,165,-3,-66,-131,-79,-87,118
0,165,165,-82,-82,165,-3,-68,-133,-80,-88,118
-1,165,166,-82,-83,166,-2,-68,-133,-79,-88,118
-2,165,167,-81,-84,166,-2,-69,-133,-80,-90,117
-3,166,169,-81,-86,168,-2,-70,-133,-80,-91,116
-4,166,170,-81,-87,168,-1,-70,-132,-81,-93,115
-5,166,171,-80,-88,169,1,-69,-130,-81,-94,115
-7,167,174,-80,-90,171,1,-70,-129,-82,-96,113
-8,167,175,-79,-91,171,2,-71,-127,-84,-98,112
-10,167,177,-78,-93,172,4,-70,-125,-84,-100,111
-12,167,179,-77,-95,173,5,-70,-123,-85,-102,110
-14,167,181,-76,-97,174,6,-71,-122,-87,-105,107
-15,167,182,-76,-98,175,8,-70,-119,-87,-107,106
-17,167,184,-75,-100,176,10,-70,-117,-88,-110,103
-18,167,185,-74,-101,176,12,-69,-114,-89,-111,102
-20,167,187,-73,-103,177,13,-69,-112,-89,-113,101
-21,167,188,-73,-104,178,15,-68,-108,-90,-115,99
-22,167,189,-72,-105,178,16,-68,-106,-91,-117,98
-24,167,191,-71,-107,179,18,-67,-102,-92,-118,97
-25,167,192,-71,-108,180,18,-67,-101,-93,-121,95
-27,167,194,-70,-110,181,20,-66,-98,-94,-123,94
-29,167,196,-69,-112,182,20,-66,-96,-95,-125,91
-30,166,196,-68,-113,181,22,-66,-93,-96,-127,90
-32,166,198,-67,-115,182,24,-65,-90,-96,-128,89
-33,166,199,-66,-116,183,25,-64,-88,-97,-130,87
-34,166,200,-66,-117,183,26,-64,-86,-98,-132,85
-35,165,200,-65,-117,183,28,-63,-83,-98,-133,85
-36,165,201,-64,-118,183,29,-63,-81,-99,-135,84
-37,165,202,-64,-119,184,30,-62,-78,-100,-136,83
-37,165,202,-64,-119,184,31,-63,-77,-101,-138,82
-38,165,203,-63,-120,184,31,-63,-76,-102,-139,80
-39,164,203,-62,-121,184,32,-62,-74,-102,-140,80
-40,164,204,-62,-122,184,33,-62,-73,-102,-141,78
-40,163,203,-61,-121,183,33,-61,-72,-103,-142,77
-41,163,204,-61,-122,184,35,-60,-70,-103,-142,77
-41,163,204,-61,-122,184,35,-59,-69,-104,-142,77
-41,163,204,-61,-122,184,35,-59,-68,-104,-143,76
-41,163,204,-61,-122,184,35,-59,-67,-105,-143,76
-41,162,203,-60,-122,183,36,-59,-66,-105,-144,76
-41,162,203,-60,-122,183,36,-59,-65,-105,-145,75
-42,161,203,-59,-122,182,37,-58,-64,-104,-144,75
-42,161,203,-59,-122,182,36,-58,-63,-104,-145,75
-43,160,203,-58,-123,182,36,-57,-62,-104,-146,74
-43,160,203,-58,-123,182,36,-57,-61,-103,-146,73
-43,160,203,-58,-123,182,36,-57,-60,-103,-147,73
-42,160,202,-59,-122,181,36,-56,-59,-103,-147,72
-42,160,202,-59,-122,181,36,-56,-59,-103,-147,72
-42,160,202,-59,-122,181,36,-56,-58,-103,-147,72
-42,160,202,-59,-122,181,36,-56,-57,-103,-148,72
-43,160,203,-58,-123,182,36,-56,-57,-103,-148,72
-43,160,203,-58,-123,182,36,-56,-57,-104,-148,72
-43,160,203,-58,-123,182,36,-56,-56,-104,-148,71
-43,160,203,-58,-123,182,37,-55,-56,-104,-148,71
-43,160,203,-58,-123,182,37,-55,-56,-103,-148,71
-43,160,203,-58,-123,182,38,-55,-55,-103,-148,71
-43,160,203,-58,-123,182,38,-55,-55,-104,-148,70
-43,160,203,-58,-123,182,38,-55,-55,-104,-148,70
-43,161,204,-59,-123,183,37,-55,-55,-104,-148,71
-43,161,204,-59,-123,183,37,-55,-54,-104,-148,71
-43,161,204,-59,-123,183,37,-55,-54,-104,-148,71
-43,161,204,-59,-123,183,36,-55,-54,-104,-148,71
-43,161,204,-59,-123,183,36,-55,-54,-104,-148,71
-43,161,204,-59,-123,183,36,-55,-54,-104,-148,71
-43,162,205,-59,-124,184,36,-55,-54,-104,-148,71
-43,162,205,-59,-124,184,36,-55,-54,-104,-148,70
-43,162,205,-59,-124,184,36,-54,-54,-104,-148,70
-43,162,205,-59,-124,184,36,-54,-54,-104,-148,70
-43,163,206,-60,-124,185,35,-55,-55,-105,-149,70
-43,162,205,-59,-124,184,35,-54,-54,-105,-148,71
-44,162,206,-59,-125,184,34,-55,-55,-105,-149,70
-44,162,206,-59,-125,184,34,-55,-55,-106,-149,70
-45,161,206,-58,-125,184,35,-55,-54,-105,-148,71
-45,161,206,-58,-125,184,34,-55,-55,-106,-148,70
-45,161,206,-58,-125,184,34,-55,-55,-106,-149,70
-45,161,206,-58,-125,184,35,-54,-54,-106,-149,71
-44,162,206,-59,-125,184,34,-55,-55,-106,-149,70
-44,162,206,-59,-125,184,34,-55,-55,-106,-149,71
-44,162,206,-59,-125,184,34,-55,-54,-107,-149,71
-44,162,206,-59,-125,184,35,-55,-54,-107,-149,71
-44,163,207,-59,-125,185,34,-55,-55,-107,-149,71
-44,162,206,-59,-125,184,34,-56,-55,-108,-149,71
-44,162,206,-59,-125,184,34,-56,-55,-108,-150,71
-44,162,206,-59,-125,184,34,-57,-55,-108,-150,71
-43,162,205,-59,-124,184,35,-57,-56,-108,-150,70
-43,162,205,-59,-124,184,35,-57,-56,-108,-150,70
-43,162,205,-59,-124,184,35,-57,-56,-107,-150,71
-43,162,205,-59,-124,184,34,-57,-56,-107,-150,71
-43,162,205,-59,-124,184,34,-57,-57,-108,-150,70
-43,162,205,-59,-124,184,34,-57,-57,-109,-151,70
-43,161,204,-59,-123,183,33,-58,-58,-109,-151,69
-44,161,205,-58,-124,183,33,-58,-59,-110,-152,69
-44,160,204,-58,-124,182,34,-58,-59,-109,-152,70
-44,160,204,-58,-124,182,34,-58,-60,-110,-152,69
-44,160,204,-58,-124,182,34,-58,-60,-110,-153,69
-44,160,204,-58,-124,182,35,-58,-60,-111,-153,69
-44,161,205,-58,-124,183,34,-59,-62,-112,-154,68
-44,161,205,-58,-124,183,34,-59,-62,-112,-154,69
-44,161,205,-58,-124,183,34,-60,-62,-112,-154,69
-44,161,205,-58,-124,183,34,-60,-63,-113,-155,68
-44,160,204,-58,-124,182,34,-59,-62,-112,-154,69
-45,160,205,-57,-125,183,34,-59,-63,-113,-155,69
-45,160,205,-57,-125,183,34,-59,-63,-113,-155,68
-45,160,205,-57,-125,183,34,-59,-64,-113,-155,68
-45,160,205,-57,-125,183,34,-59,-64,-113,-155,68
-45,160,205,-57,-125,183,34,-59,-64,-113,-155,67
-45,160,205,-57,-125,183,34,-59,-64,-113,-155,67
-44,161,205,-58,-124,183,33,-60,-65,-114,-155,67
-44,161,205,-58,-124,183,32,-60,-66,-115,-155,67
-44,161,205,-58,-124,183,32,-60,-66,-115,-155,66
-45,160,205,-57,-125,183,32,-60,-66,-115,-155,67
-45,160,205,-57,-125,183,31,-60,-67,-115,-155,66
-46,159,205,-56,-125,182,32,-59,-67,-115,-155,67
-47,159,206,-56,-126,183,32,-60,-67,-115,-156,66
-47,158,205,-55,-126,182,32,-60,-68,-116,-156,66
-47,159,206,-56,-126,183,32,-60,-68,-116,-157,66
-47,159,206,-56,-126,183,32,-60,-68,-115,-156,66
-47,159,206,-56,-126,183,32,-60,-68,-115,-156,67
-46,159,205,-56,-125,182,32,-60,-68,-115,-156,67
-46,159,205,-56,-125,182,32,-60,-68,-115,-156,68
-47,159,206,-56,-126,183,32,-61,-68,-116,-156,67
-47,158,205,-55,-126,182,32,-61,-69,-116,-157,67
-47,157,204,-55,-125,181,32,-60,-68,-116,-157,67
-48,157,205,-54,-126,181,32,-61,-69,-116,-157,67
-48,156,204,-54,-126,180,32,-61,-70,-116,-157,67
-48,156,204,-54,-126,180,33,-60,-70,-115,-157,67
-47,157,204,-55,-125,181,33,-60,-70,-115,-157,67
-47,157,204,-55,-125,181,33,-60,-70,-115,-156,68
-46,158,204,-56,-125,181,32,-61,-70,-116,-157,67
-46,158,204,-56,-125,181,32,-60,-70,-116,-156,67
-46,159,205,-56,-125,182,32,-60,-71,-116,-156,67
-46,158,204,-56,-125,181,32,-60,-71,-116,-156,67
-46,158,204,-56,-125,181,32,-61,-71,-116,-157,67
-47,158,205,-55,-126,182,32,-61,-72,-116,-157,67
-47,158,205,-55,-126,182,31,-61,-72,-116,-157,66
-47,158,205,-55,-126,182,31,-60,-72,-117,-158,66
-47,158,205,-55,-126,182,31,-61,-73,-117,-158,66
-46,158,204,-56,-125,181,31,-61,-73,-118,-158,66
-46,158,204,-56,-125,181,31,-61,-73,-118,-158,66
-46,158,204,-56,-125,181,31,-61,-73,-118,-158,66
-46,157,203,-55,-124,180,31,-61,-74,-118,-159,67
-46,157,203,-55,-124,180,31,-62,-74,-119,-159,67
-46,157,203,-55,-124,180,31,-62,-74,-119,-160,67
-47,157,204,-55,-125,181,32,-62,-74,-118,-159,67
-47,157,204,-55,-125,181,32,-62,-74,-118,-159,67
-47,157,204,-55,-125,181,32,-62,-74,-118,-159,66
-47,158,205,-55,-126,182,31,-63,-75,-119,-160,65
-46,158,204,-56,-125,181,32,-62,-74,-119,-159,65
-46,159,205,-56,-125,182,31,-62,-74,-119,-159,65
-46,159,205,-56,-125,182,31,-62,-74,-119,-159,65
-46,159,205,-56,-125,182,32,-63,-74,-119,-159,65
-47,158,205,-55,-126,182,32,-63,-75,-119,-159,65
-47,158,205,-55,-126,182,32,-64,-75,-120,-160,64
-47,158,205,-55,-126,182,31,-64,-75,-120,-160,64
-48,158,206,-55,-127,182,32,-63,-74,-119,-160,64
-48,158,206,-55,-127,182,32,-63,-74,-119,-160,64
-47,158,205,-55,-126,182,31,-64,-75,-120,-161,63
-47,158,205,-55,-126,182,30,-64,-75,-120,-161,63
-47,158,205,-55,-126,182,30,-64,-74,-120,-161,63
-47,158,205,-55,-126,182,29,-64,-75,-120,-161,63
-47,158,205,-55,-126,182,29,-64,-75,-121,-161,63
-47,158,205,-55,-126,182,29,-64,-75,-121,-161,63
-47,158,205,-55,-126,182,30,-64,-75,-121,-161,63
-48,158,206,-55,-127,182,31,-63,-74,-120,-160,64
-48,157,205,-54,-126,181,30,-63,-75,-120,-160,64
-48,157,205,-54,-126,181,30,-63,-74,-120,-160,64
-48,157,205,-54,-126,181,30,-63,-74,-120,-160,64
-48,158,206,-55,-127,182,30,-63,-74,-120,-160,64
-47,158,205,-55,-126,182,28,-64,-75,-120,-161,64
-47,158,205,-55,-126,182,28,-65,-75,-120,-162,64
-47,159,206,-56,-126,183,28,-65,-75,-121,-162,64
-47,159,206,-56,-126,183,28,-65,-75,-121,-162,64
-48,159,207,-55,-127,183,27,-66,-76,-122,-162,64
-48,158,206,-55,-127,182,28,-65,-75,-121,-161,65
-48,158,206,-55,-127,182,28,-64,-75,-121,-161,65
-48,158,206,-55,-127,182,28,-64,-75,-121,-160,65
-47,158,205,-55,-126,182,27,-65,-76,-122,-161,64
-47,158,205,-55,-126,182,27,-65,-76,-121,-161,64
-47,158,205,-55,-126,182,27,-64,-75,-121,-160,64
-46,157,203,-55,-124,180,26,-64,-75,-121,-160,64
-47,157,204,-55,-125,181,27,-64,-74,-120,-159,65
-47,156,203,-54,-125,180,27,-64,-75,-121,-160,64
-48,156,204,-54,-126,180,26,-64,-75,-121,-160,64
-48,156,204,-54,-126,180,26,-65,-75,-121,-161,64
-48,156,204,-54,-126,180,26,-64,-75,-121,-161,64
-48,157,205,-54,-126,181,26,-64,-75,-121,-161,64
-47,157,204,-55,-125,181,26,-64,-75,-121,-161,64
-47,158,205,-55,-126,182,26,-65,-75,-122,-161,63
-46,159,205,-56,-125,182,26,-64,-74,-122,-160,64
-46,159,205,-56,-125,182,27,-64,-74,-122,-160,64
-45,160,205,-57,-125,183,27,-64,-74,-122,-161,64
-45,160,205,-57,-125,183,28,-64,-73,-121,-160,64
-45,161,206,-58,-125,184,28,-63,-72,-120,-160,65
-44,161,205,-58,-124,183,28,-62,-72,-120,-161,65
-43,162,205,-59,-124,184,29,-61,-71,-119,-160,65
-43,162,205,-59,-124,184,29,-59,-70,-118,-159,66
-43,162,205,-59,-124,184,30,-58,-69,-118,-158,67
-42,163,205,-60,-123,184,29,-58,-69,-118,-158,67
-41,165,206,-62,-123,186,29,-59,-69,-118,-158,66
-41,166,207,-62,-124,187,30,-58,-67,-116,-156,67
-41,167,208,-63,-124,188,30,-59,-67,-116,-156,68
-40,169,209,-64,-124,189,30,-59,-66,-116,-156,68
-40,171,211,-65,-125,191,31,-58,-64,-114,-155,69
-40,173,213,-66,-126,193,31,-58,-63,-113,-154,69
-40,174,214,-67,-127,194,32,-57,-62,-112,-153,70
-40,175,215,-67,-127,195,32,-58,-62,-113,-153,69
-40,175,215,-67,-127,195,32,-58,-61,-112,-153,70
-40,175,215,-67,-127,195,32,-58,-61,-111,-152,71
-39,176,215,-68,-127,196,31,-59,-60,-110,-151,72
-38,177,215,-69,-126,196,29,-61,-60,-110,-151,72
-37,178,215,-70,-126,197,27,-62,-60,-109,-150,74
-35,180,215,-72,-125,198,25,-61,-58,-108,-148,75
-33,182,215,-74,-124,199,24,-61,-57,-106,-147,76
-32,184,216,-76,-124,200,23,-61,-56,-105,-146,77
-32,185,217,-76,-124,201,22,-60,-56,-105,-146,77
-31,185,216,-77,-123,201,22,-59,-56,-104,-146,77
-31,184,215,-76,-123,200,21,-60,-58,-106,-147,76
-32,182,214,-75,-123,198,20,-61,-61,-107,-147,75
-32,181,213,-74,-122,197,18,-63,-64,-109,-148,75
-33,179,212,-73,-122,196,17,-66,-67,-111,-150,74
-34,178,212,-72,-123,195,15,-69,-70,-113,-151,73
-35,177,212,-71,-123,195,15,-72,-72,-114,-152,72
-35,176,211,-70,-123,194,14,-74,-75,-116,-154,71
-36,176,212,-70,-124,194,15,-74,-75,-116,-154,71
-36,175,211,-69,-123,193,15,-74,-75,-117,-155,70
-37,174,211,-68,-124,193,16,-73,-75,-117,-155,70
-37,173,210,-68,-123,192,16,-73,-76,-118,-156,70
-36,172,208,-68,-122,190,16,-73,-76,-118,-156,69
-36,171,207,-67,-121,189,16,-73,-76,-118,-156,69
-36,169,205,-66,-120,187,17,-72,-75,-118,-156,70
-37,168,205,-65,-121,187,19,-72,-75,-117,-155,70
-38,166,204,-64,-121,185,20,-72,-75,-117,-155,70
-38,165,203,-63,-120,184,20,-72,-77,-118,-156,69
-39,165,204,-63,-121,185,20,-73,-77,-119,-156,68
-40,164,204,-62,-122,184,20,-72,-77,-119,-156,68
-40,163,203,-61,-121,183,20,-72,-78,-119,-157,67
-40,163,203,-61,-121,183,20,-72,-78,-120,-158,67
-41,162,203,-60,-122,183,21,-71,-78,-120,-158,67
-42,161,203,-59,-122,182,22,-70,-77,-120,-158,66
-43,160,203,-58,-123,182,22,-70,-79,-122,-160,64
-45,159,204,-57,-124,182,23,-70,-79,-122,-161,63
-46,158,204,-56,-125,181,24,-69,-79,-123,-162,62
-48,157,205,-54,-126,181,25,-69,-79,-123,-163,62
-48,156,204,-54,-126,180,24,-69,-79,-124,-164,61
-48,156,204,-54,-126,180,24,-70,-80,-124,-165,60
-49,155,204,-53,-126,180,25,-69,-80,-124,-165,60
-49,155,204,-53,-126,180,24,-70,-80,-125,-165,59
-49,155,204,-53,-126,180,24,-71,-81,-126,-166,59
-49,155,204,-53,-126,180,24,-71,-82,-126,-166,58
-49,155,204,-53,-126,180,24,-72,-82,-127,-167,58
-49,155,204,-53,-126,180,24,-72,-82,-127,-167,58
-49,154,203,-52,-126,179,24,-73,-82,-127,-167,58
-48,155,203,-53,-125,179,25,-72,-82,-127,-167,58
-49,155,204,-53,-126,180,25,-72,-82,-127,-167,58
-49,155,204,-53,-126,180,25,-72,-83,-128,-168,57
-49,155,204,-53,-126,180,25,-72,-83,-128,-168,57
-49,155,204,-53,-126,180,25,-72,-83,-128,-169,57
-49,155,204,-53,-126,180,25,-71,-83,-128,-169,57
-49,155,204,-53,-126,180,25,-71,-83,-128,-169,56
-49,155,204,-53,-126,180,25,-71,-83,-129,-169,56
-49,154,203,-52,-126,179,25,-71,-83,-129,-170,56
-49,154,203,-52,-126,179,25,-72,-84,-130,-170,56
-50,154,204,-52,-127,179,26,-71,-83,-129,-169,56
-50,154,204,-52,-127,179,25,-71,-83,-130,-170,56
-51,153,204,-51,-127,179,25,-72,-84,-130,-170,56
-51,153,204,-51,-127,179,25,-72,-84,-130,-170,56
-51,153,204,-51,-127,179,25,-72,-83,-130,-170,56
-51,153,204,-51,-127,179,25,-72,-83,-129,-169,56
-51,153,204,-51,-127,179,26,-71,-83,-129,-169,56
-51,153,204,-51,-127,179,26,-71,-83,-129,-169,56
-51,154,205,-51,-128,180,26,-72,-83,-129,-169,56
-50,154,204,-52,-127,179,27,-72,-82,-129,-169,56
-50,154,204,-52,-127,179,26,-72,-82,-129,-169,56
-51,154,205,-51,-128,180,26,-72,-83,-129,-169,56
-51,154,205,-51,-128,180,26,-72,-83,-129,-169,56
-51,154,205,-51,-128,180,26,-72,-83,-129,-170,57
-51,154,205,-51,-128,180,26,-72,-82,-129,-169,57
-51,154,205,-51,-128,180,26,-71,-82,-128,-169,57
-51,154,205,-51,-128,180,27,-71,-81,-128,-169,58
-51,155,206,-52,-128,181,27,-71,-81,-128,-169,58
-50,155,205,-52,-127,180,26,-71,-81,-128,-169,57
-50,155,205,-52,-127,180,26,-71,-81,-128,-169,57
-51,154,205,-51,-128,180,27,-71,-81,-127,-169,57
-52,154,206,-51,-129,180,27,-71,-81,-128,-169,57
-52,154,206,-51,-129,180,27,-71,-80,-129,-171,55
-54,154,208,-50,-131,181,30,-69,-77,-129,-172,55
-57,154,211,-48,-134,183,34,-66,-73,-130,-175,52
-61,154,215,-46,-138,185,40,-61,-66,-133,-179,49
-66,155,221,-44,-143,188,50,-53,-55,-137,-185,45
-72,155,227,-41,-149,191,61,-41,-40,-142,-194,39
-78,155,233,-38,-155,194,75,-24,-21,-149,-204,31
-83,153,236,-35,-159,195,91,1,4,-155,-214,23
-86,151,237,-32,-161,194,110,34,37,-160,-225,14
-86,149,235,-31,-160,192,128,73,80,-161,-234,5
-82,149,231,-33,-156,190,144,114,130,-153,-238,1
-73,152,225,-39,-149,189,155,150,180,-139,-235,1
-63,161,224,-49,-143,193,160,174,223,-118,-225,7
-51,176,227,-62,-139,202,155,178,246,-91,-206,21
-37,197,234,-80,-135,216,139,157,237,-62,-180,43
-24,223,247,-99,-135,235,113,113,191,-32,-144,73
-11,250,261,-119,-136,256,82,53,113,-4,-101,109
1,277,276,-139,-137,277,46,-19,5,24,-51,150
16,302,286,-159,-135,294,3,-99,-132,52,6,195
33,324,291,-178,-129,308,-42,-178,-284,82,72,246
50,342,292,-196,-121,317,-85,-252,-437,109,141,299
67,353,286,-210,-109,320,-125,-319,-579,128,203,346
82,357,275,-219,-96,316,-156,-371,-697,138,252,385
92,354,262,-223,-85,308,-177,-408,-787,129,283,412
96,346,250,-221,-77,298,-187,-431,-849,93,286,423
91,333,242,-212,-75,288,-184,-440,-880,35,264,418
81,313,232,-197,-75,273,-170,-435,-883,-37,219,398
67,289,222,-178,-77,256,-149,-418,-869,-120,158,366
48,262,214,-155,-83,238,-124,-395,-847,-210,87,327
29,231,202,-130,-86,217,-93,-365,-816,-288,15,284
12,196,184,-104,-86,190,-57,-324,-770,-341,-50,240
-2,157,159,-77,-80,158,-20,-274,-713,-372,-105,199
-15,119,134,-52,-74,127,14,-222,-650,-387,-152,159
-26,87,113,-30,-69,100,43,-172,-585,-385,-188,123
-34,62,96,-14,-65,79,68,-124,-521,-366,-210,95
-40,46,86,-3,-63,66,81,-85,-462,-340,-222,74
-44,39,83,3,-63,61,83,-62,-411,-317,-228,58
-48,41,89,4,-68,65,80,-49,-365,-293,-229,47
-51,48,99,2,-75,74,77,-40,-322,-269,-226,41
-54,58,112,-2,-83,85,72,-36,-282,-245,-220,38
-55,70,125,-7,-90,98,66,-38,-244,-223,-213,37
-54,84,138,-15,-96,111,61,-41,-207,-201,-206,38
-54,96,150,-21,-102,123,59,-41,-172,-179,-197,40
-52,107,159,-27,-105,133,57,-42,-142,-160,-189,44
-49,117,166,-34,-107,142,55,-43,-116,-144,-180,48
-46,127,173,-40,-109,150,52,-44,-95,-132,-174,52
-44,134,178,-45,-111,156,50,-44,-79,-123,-169,55
-43,138,181,-47,-112,160,49,-43,-66,-116,-165,58
-42,140,182,-49,-112,161,50,-41,-57,-112,-163,59
-42,141,183,-49,-112,162,50,-39,-51,-110,-163,58
-42,142,184,-50,-113,163,51,-37,-46,-108,-164,58
-43,142,185,-49,-114,164,52,-36,-42,-106,-164,57
-44,142,186,-49,-115,164,54,-34,-37,-104,-164,57
-44,143,187,-49,-115,165,53,-34,-35,-104,-166,55
-44,143,187,-49,-115,165,53,-34,-32,-103,-166,54
-45,144,189,-49,-117,167,53,-34,-30,-102,-166,53
-45,144,189,-49,-117,167,53,-34,-27,-102,-165,53
-45,145,190,-50,-117,168,53,-34,-25,-100,-165,54
-44,145,189,-50,-116,167,53,-34,-23,-100,-164,54
-44,145,189,-50,-116,167,53,-35,-22,-99,-164,54
-44,145,189,-50,-116,167,53,-35,-20,-98,-164,55
-43,145,188,-51,-115,167,52,-36,-19,-97,-165,54
-42,145,187,-51,-114,166,52,-36,-18,-96,-166,53
-42,145,187,-51,-114,166,51,-36,-16,-95,-166,53
-42,146,188,-52,-115,167,51,-35,-14,-94,-165,53
-42,146,188,-52,-115,167,51,-35,-12,-92,-165,53
-42,147,189,-52,-115,168,51,-35,-12,-92,-165,52
-42,147,189,-52,-115,168,51,-35,-10,-92,-164,53
-42,148,190,-53,-116,169,51,-34,-9,-91,-163,54
-41,148,189,-53,-115,169,51,-35,-8,-90,-162,55
-41,148,189,-53,-115,169,50,-35,-7,-89,-161,55
-41,148,189,-53,-115,169,50,-35,-6,-89,-162,55
-41,147,188,-53,-114,168,50,-35,-6,-88,-162,55
-41,147,188,-53,-114,168,49,-36,-5,-88,-162,54
-41,146,187,-52,-114,167,49,-36,-4,-87,-162,54
-42,146,188,-52,-115,167,51,-34,-2,-86,-161,55
-41,147,188,-53,-114,168,50,-34,-1,-86,-161,55
-41,147,188,-53,-114,168,50,-33,0,-84,-159,56
-41,148,189,-53,-115,169,50,-33,1,-84,-158,57
-40,149,189,-54,-114,169,49,-34,1,-84,-158,57
-39,149,188,-55,-113,169,49,-33,2,-82,-157,58
-39,149,188,-55,-113,169,49,-33,2,-81,-157,58
-39,149,188,-55,-113,169,49,-33,3,-81,-158,57
-39,149,188,-55,-113,169,49,-33,4,-80,-158,56
-39,148,187,-54,-113,168,49,-32,5,-79,-157,56
-39,148,187,-54,-113,168,49,-31,6,-78,-157,56
-39,148,187,-54,-113,168,49,-30,8,-77,-156,57
-38,148,186,-55,-112,167,49,-30,9,-76,-155,58
-38,147,185,-54,-111,166,49,-29,10,-75,-154,59
-38,146,184,-54,-111,165,49,-29,10,-75,-154,59
-38,146,184,-54,-111,165,49,-30,10,-75,-155,58
-38,145,183,-53,-110,164,49,-29,12,-74,-154,59
-38,145,183,-53,-110,164,49,-28,12,-74,-155,59
-38,146,184,-54,-111,165,49,-29,12,-74,-155,58
-37,146,183,-54,-110,165,49,-28,14,-73,-155,58
-37,147,184,-55,-110,166,49,-27,16,-72,-153,59
-36,148,184,-56,-110,166,49,-27,15,-72,-153,58
-36,149,185,-56,-110,167,49,-26,16,-71,-152,58
-35,149,184,-57,-109,167,48,-27,16,-71,-153,58
-35,148,183,-56,-109,166,48,-26,17,-70,-152,58
-36,147,183,-55,-109,165,47,-26,17,-70,-153,57
-36,147,183,-55,-109,165,47,-26,17,-69,-154,57
-36,147,183,-55,-109,165,47,-25,18,-69,-154,57
-35,147,182,-56,-108,165,47,-24,19,-67,-154,57
-35,148,183,-56,-109,166,48,-22,21,-66,-153,58
-34,149,183,-57,-108,166,48,-21,22,-66,-152,58
-33,149,182,-58,-107,166,48,-20,23,-65,-151,59
-32,150,182,-59,-107,166,48,-20,22,-65,-150,60
-31,151,182,-60,-106,167,48,-20,22,-65,-150,60
-31,151,182,-60,-106,167,48,-20,22,-65,-149,60
-31,151,182,-60,-106,167,47,-20,22,-66,-149,60
-31,151,182,-60,-106,167,47,-20,22,-66,-150,60
-31,150,181,-59,-106,166,47,-19,23,-64,-149,60
-31,150,181,-59,-106,166,47,-18,24,-64,-149,60
-31,150,181,-59,-106,166,46,-17,24,-63,-148,60
-31,150,181,-59,-106,166,46,-16,25,-62,-147,60
-31,150,181,-59,-106,166,46,-15,25,-61,-146,61
-30,150,180,-60,-105,165,45,-15,25,-62,-145,61
-29,150,179,-60,-104,165,46,-14,25,-61,-144,61
-28,150,178,-61,-103,164,46,-14,25,-61,-142,62
-28,150,178,-61,-103,164,46,-14,25,-60,-142,62
-28,150,178,-61,-103,164,46,-13,25,-60,-142,62
-27,150,177,-61,-102,164,46,-14,24,-60,-142,61
-27,150,177,-61,-102,164,46,-13,25,-60,-142,61
-27,150,177,-61,-102,164,46,-12,25,-59,-142,61
-27,151,178,-62,-102,165,46,-12,26,-59,-141,62
-26,151,177,-62,-101,164,46,-11,26,-58,-139,63
-25,152,177,-63,-101,165,45,-12,26,-58,-139,63
-24,152,176,-64,-100,164,45,-11,26,-57,-137,64
-23,153,176,-65,-99,165,44,-12,25,-58,-137,65
-22,153,175,-65,-98,164,43,-12,24,-57,-135,66
-21,154,175,-66,-98,165,42,-12,23,-57,-135,66
-21,154,175,-66,-98,165,41,-11,23,-56,-134,67
-20,155,175,-67,-97,165,40,-12,21,-56,-134,67
-20,155,175,-67,-97,165,39,-12,20,-55,-132,68
-19,155,174,-68,-96,165,39,-11,20,-54,-131,69
-18,156,174,-69,-96,165,38,-12,18,-53,-130,70
-17,156,173,-69,-95,165,38,-12,18,-52,-127,72
-16,156,172,-70,-94,164,37,-12,17,-51,-126,74
-15,156,171,-70,-93,164,36,-14,15,-52,-125,74
-14,156,170,-71,-92,163,35,-14,13,-51,-124,75
-14,156,170,-71,-92,163,34,-14,12,-51,-123,76
-13,156,169,-71,-91,163,33,-15,9,-51,-122,77
-13,156,169,-71,-91,163,31,-15,7,-50,-121,77
-12,157,169,-72,-90,163,30,-17,4,-51,-121,77
-11,157,168,-73,-89,163,29,-17,2,-50,-119,79
-10,158,168,-74,-89,163,28,-19,-2,-50,-118,79
-9,159,168,-75,-88,164,27,-20,-5,-51,-117,80
-8,159,167,-75,-87,163,26,-21,-8,-50,-114,82
-7,160,167,-76,-87,164,25,-23,-12,-51,-113,83
-7,160,167,-76,-87,164,24,-25,-16,-50,-111,85
-6,160,166,-77,-86,163,23,-26,-19,-50,-110,86
-5,160,165,-77,-85,163,23,-27,-23,-50,-108,87
-5,160,165,-77,-85,163,22,-28,-27,-50,-107,88
-5,160,165,-77,-85,163,22,-30,-30,-49,-105,90
-4,160,164,-78,-84,162,20,-32,-34,-50,-104,90
-4,161,165,-78,-84,163,20,-33,-38,-50,-102,92
-4,161,165,-78,-84,163,18,-35,-42,-51,-100,93
-4,160,164,-78,-84,162,17,-38,-47,-52,-99,95
-3,160,163,-78,-83,162,16,-40,-51,-52,-97,97
-3,160,163,-78,-83,162,15,-42,-56,-53,-96,98
-3,159,162,-78,-82,161,14,-45,-61,-54,-95,99
-4,159,163,-77,-83,161,14,-46,-64,-54,-93,101
-3,159,162,-78,-82,161,12,-49,-70,-56,-93,101
-2,160,162,-79,-82,161,12,-51,-73,-56,-92,103
-3,160,163,-78,-83,162,11,-52,-77,-57,-91,104
-2,161,163,-79,-82,162,9,-55,-81,-58,-91,104
-2,162,164,-80,-83,163,9,-56,-84,-59,-90,105
-1,162,163,-80,-82,163,8,-57,-86,-60,-89,107
-2,163,165,-80,-83,164,8,-59,-89,-61,-90,107
-2,163,165,-80,-83,164,7,-61,-92,-63,-91,107
-3,163,166,-80,-84,165,7,-62,-94,-64,-92,106
-4,163,167,-79,-85,165,7,-63,-96,-66,-93,105
-5,162,167,-78,-86,165,7,-63,-96,-67,-94,105
-6,162,168,-78,-87,165,7,-64,-97,-68,-95,103
-7,162,169,-77,-88,166,9,-63,-97,-69,-96,103
-9,161,170,-76,-89,166,10,-63,-96,-71,-97,102
-10,161,171,-75,-90,166,11,-64,-96,-73,-99,101
-11,160,171,-74,-91,166,12,-64,-95,-74,-101,101
-12,160,172,-74,-92,166,13,-65,-94,-77,-103,99
-14,160,174,-73,-94,167,14,-64,-93,-78,-105,98
-15,161,176,-73,-95,169,15,-65,-92,-80,-108,96
-16,161,177,-72,-96,169,16,-65,-91,-82,-111,94
-17,161,178,-72,-97,170,16,-64,-90,-83,-114,91
-19,161,180,-71,-99,171,18,-63,-87,-84,-116,90
-20,162,182,-71,-101,172,19,-63,-85,-85,-119,88
-21,162,183,-70,-102,173,20,-63,-84,-87,-121,87
-22,162,184,-70,-103,173,21,-62,-82,-87,-122,86
-23,161,184,-69,-103,173,22,-62,-80,-88,-124,85
-24,161,185,-68,-104,173,23,-61,-78,-89,-125,84
-25,160,185,-67,-105,173,24,-61,-77,-91,-127,82
-26,159,185,-66,-105,172,25,-61,-75,-91,-129,81
-28,158,186,-65,-107,172,26,-60,-73,-92,-131,80
-30,158,188,-64,-109,173,28,-59,-71,-93,-133,78
-31,157,188,-63,-109,173,28,-59,-71,-95,-136,76
-32,157,189,-62,-110,173,30,-58,-69,-96,-138,75
-34,157,191,-61,-112,174,31,-58,-68,-97,-140,73
-34,157,191,-61,-112,174,31,-58,-67,-99,-142,72
-35,157,192,-61,-113,175,33,-57,-65,-99,-142,72
-36,157,193,-60,-114,175,33,-58,-65,-101,-144,71
-36,156,192,-60,-114,174,33,-58,-64,-102,-146,70
-36,156,192,-60,-114,174,33,-58,-64,-103,-148,68
-37,155,192,-59,-114,174,34,-57,-62,-103,-149,67
-37,155,192,-59,-114,174,34,-57,-62,-104,-150,66
-37,154,191,-58,-114,173,34,-57,-61,-104,-151,65
-38,154,192,-58,-115,173,36,-56,-60,-104,-150,65
-38,153,191,-57,-114,172,36,-56,-59,-104,-151,65
-38,153,191,-57,-114,172,36,-56,-58,-104,-151,65
-38,154,192,-58,-115,173,37,-56,-58,-104,-151,65
-39,154,193,-57,-116,174,37,-56,-57,-104,-152,65
-40,154,194,-57,-117,174,37,-56,-57,-105,-152,65
-39,154,193,-57,-116,174,37,-56,-56,-105,-153,65
-40,154,194,-57,-117,174,37,-56,-56,-106,-154,64
-41,153,194,-56,-117,174,38,-55,-55,-105,-154,65
-41,153,194,-56,-117,174,38,-55,-55,-105,-154,65
-41,153,194,-56,-117,174,39,-54,-54,-105,-154,64
-40,152,192,-56,-116,172,39,-54,-53,-106,-154,64
-40,152,192,-56,-116,172,40,-53,-53,-106,-154,64
-40,152,192,-56,-116,172,40,-53,-52,-106,-154,64
-40,152,192,-56,-116,172,40,-52,-52,-105,-154,65
-40,152,192,-56,-116,172,39,-52,-52,-106,-153,64
-40,152,192,-56,-116,172,39,-52,-51,-106,-154,63
-40,152,192,-56,-116,172,39,-52,-51,-106,-154,63
-40,152,192,-56,-116,172,39,-52,-51,-106,-155,63
-41,152,193,-55,-117,173,38,-52,-50,-106,-156,62
-41,152,193,-55,-117,173,39,-52,-50,-107,-156,62
-40,152,192,-56,-116,172,40,-50,-48,-106,-156,63
-39,152,191,-56,-115,172,41,-49,-47,-105,-155,64
-39,152,191,-56,-115,172,41,-49,-46,-105,-154,64
-38,153,191,-57,-114,172,40,-49,-47,-105,-154,64
-38,153,191,-57,-114,172,40,-49,-46,-104,-153,64
-38,153,191,-57,-114,172,39,-49,-45,-104,-153,64
-38,153,191,-57,-114,172,39,-49,-46,-104,-154,64
-38,153,191,-57,-114,172,39,-49,-46,-104,-154,63
-38,152,190,-57,-114,171,39,-49,-46,-104,-155,63
-39,152,191,-56,-115,172,40,-48,-44,-103,-154,63
-39,152,191,-56,-115,172,40,-48,-44,-102,-154,63
-39,152,191,-56,-115,172,40,-48,-43,-102,-154,63
-39,152,191,-56,-115,172,41,-48,-43,-102,-154,63
-39,151,190,-56,-114,171,41,-48,-43,-102,-154,63
-39,151,190,-56,-114,171,41,-48,-42,-102,-154,64
-39,151,190,-56,-114,171,41,-48,-42,-102,-154,64
-38,151,189,-56,-113,170,41,-47,-43,-102,-154,64
-38,152,190,-57,-114,171,40,-48,-44,-103,-155,63
-38,151,189,-56,-113,170,40,-47,-43,-102,-154,64
-38,152,190,-57,-114,171,39,-48,-44,-103,-155,63
-37,152,189,-57,-113,171,40,-48,-43,-103,-155,62
-37,153,190,-58,-113,172,40,-48,-43,-103,-155,61
-37,154,191,-58,-114,173,38,-49,-44,-104,-156,60
-37,154,191,-58,-114,173,38,-49,-44,-104,-156,60
-37,155,192,-59,-114,174,38,-49,-44,-105,-156,59
-38,155,193,-58,-115,174,37,-50,-45,-105,-157,59
-38,155,193,-58,-115,174,37,-51,-46,-105,-157,59
-38,154,192,-58,-115,173,38,-50,-45,-105,-156,61
-39,153,192,-57,-115,173,38,-50,-46,-105,-156,61
-40,152,192,-56,-116,172,38,-50,-45,-105,-155,62
-40,152,192,-56,-116,172,38,-50,-46,-105,-155,63
-39,152,191,-56,-115,172,38,-50,-46,-104,-154,63
-39,152,191,-56,-115,172,38,-49,-46,-105,-153,64
-39,152,191,-56,-115,172,38,-50,-47,-105,-153,64
-39,152,191,-56,-115,172,38,-50,-48,-105,-154,63
-38,153,191,-57,-114,172,36,-50,-49,-106,-154,62
-38,152,190,-57,-114,171,36,-50,-49,-106,-154,62
-39,152,191,-56,-115,172,37,-50,-49,-105,-153,63
-39,152,191,-56,-115,172,37,-50,-50,-104,-153,63
-38,152,190,-57,-114,171,36,-51,-51,-105,-153,63
-37,153,190,-58,-113,172,36,-51,-51,-104,-152,64
-37,153,190,-58,-113,172,36,-51,-51,-104,-152,64
-37,154,191,-58,-114,173,35,-53,-53,-105,-153,63
-37,154,191,-58,-114,173,35,-53,-54,-106,-153,63
-38,154,192,-58,-115,173,36,-53,-54,-105,-152,64
-39,154,193,-57,-116,174,35,-54,-55,-106,-153,63
-39,153,192,-57,-115,173,35,-55,-55,-106,-154,63
-39,153,192,-57,-115,173,35,-55,-56,-106,-154,62
-40,152,192,-56,-116,172,36,-55,-55,-105,-154,63
-39,151,190,-56,-114,171,36,-55,-56,-106,-154,62
-39,151,190,-56,-114,171,36,-54,-56,-106,-153,62
-39,151,190,-56,-114,171,37,-54,-56,-106,-153,62
-39,150,189,-55,-114,170,36,-55,-57,-106,-153,62
-39,150,189,-55,-114,170,36,-55,-57,-107,-154,61
-40,149,189,-54,-114,169,37,-55,-57,-106,-154,61
-40,149,189,-54,-114,169,36,-55,-57,-107,-155,61
-41,149,190,-54,-115,170,36,-56,-58,-107,-155,61
-40,149,189,-54,-114,169,36,-55,-58,-106,-155,61
-40,150,190,-55,-115,170,36,-55,-58,-106,-155,61
-40,151,191,-55,-115,171,35,-56,-59,-107,-155,60
-39,151,190,-56,-114,171,35,-55,-59,-106,-154,61
-38,151,189,-56,-113,170,35,-55,-58,-105,-153,62
-38,151,189,-56,-113,170,35,-55,-59,-106,-153,62
-38,150,188,-56,-113,169,34,-56,-59,-106,-154,62
-38,150,188,-56,-113,169,34,-56,-60,-107,-154,61
-39,149,188,-55,-113,169,34,-56,-59,-106,-154,61
-39,149,188,-55,-113,169,34,-56,-60,-107,-155,61
-40,149,189,-54,-114,169,33,-57,-60,-107,-156,60
-40,149,189,-54,-114,169,34,-57,-61,-108,-157,59
-40,149,189,-54,-114,169,34,-57,-61,-108,-156,59
-40,150,190,-55,-115,170,34,-57,-61,-107,-156,59
-40,150,190,-55,-115,170,35,-57,-61,-107,-155,59
-40,149,189,-54,-114,169,35,-57,-61,-107,-155,59
-40,149,189,-54,-114,169,35,-57,-62,-107,-155,59
-40,149,189,-54,-114,169,35,-58,-62,-108,-155,60
-40,148,188,-54,-114,168,35,-58,-62,-108,-155,59
-41,147,188,-53,-114,168,35,-58,-62,-107,-155,60
-41,147,188,-53,-114,168,35,-57,-62,-107,-155,60
-41,147,188,-53,-114,168,35,-57,-62,-107,-155,60
-41,147,188,-53,-114,168,35,-58,-63,-108,-155,60
-41,146,187,-52,-114,167,35,-58,-63,-108,-155,59
-40,146,186,-53,-113,166,35,-57,-63,-109,-154,60
-40,146,186,-53,-113,166,35,-57,-63,-109,-154,60
-39,146,185,-53,-112,166,34,-57,-63,-109,-154,60
-39,146,185,-53,-112,166,34,-57,-63,-109,-153,61
-40,146,186,-53,-113,166,34,-57,-63,-109,-153,61
-40,146,186,-53,-113,166,34,-57,-63,-108,-153,61
-40,145,185,-52,-112,165,33,-57,-63,-108,-153,61
-41,144,185,-51,-113,165,35,-56,-63,-107,-152,61
-41,144,185,-51,-113,165,35,-56,-63,-107,-152,61
-41,144,185,-51,-113,165,35,-56,-63,-107,-153,60
-41,145,186,-52,-113,166,35,-56,-63,-107,-153,61
-40,145,185,-52,-112,165,34,-57,-64,-108,-154,60
-40,145,185,-52,-112,165,34,-57,-64,-108,-154,60
-40,145,185,-52,-112,165,34,-57,-64,-109,-154,60
-40,145,185,-52,-112,165,33,-57,-65,-109,-154,59
-40,145,185,-52,-112,165,33,-57,-65,-110,-154,60
-40,145,185,-52,-112,165,33,-56,-65,-110,-155,59
-41,144,185,-51,-113,165,33,-55,-65,-109,-154,60
-41,144,185,-51,-113,165,33,-55,-65,-109,-154,59
-41,144,185,-51,-113,165,33,-55,-65,-109,-154,60
-40,144,184,-52,-112,164,33,-55,-65,-109,-154,60
-40,144,184,-52,-112,164,33,-55,-65,-108,-153,60
-40,144,184,-52,-112,164,33,-56,-65,-108,-153,60
-40,143,183,-51,-111,163,33,-56,-65,-109,-153,60
-40,143,183,-51,-111,163,33,-56,-66,-109,-153,60
-40,143,183,-51,-111,163,34,-56,-66,-109,-153,59
-41,143,184,-51,-112,164,34,-56,-66,-109,-153,59
-40,144,184,-52,-112,164,35,-56,-66,-109,-153,59
-40,144,184,-52,-112,164,35,-56,-65,-109,-152,59
-40,144,184,-52,-112,164,35,-56,-65,-109,-152,60
-39,145,184,-53,-111,165,35,-57,-65,-109,-152,59
-38,145,183,-53,-110,164,36,-56,-64,-109,-152,60
-38,145,183,-53,-110,164,36,-55,-64,-109,-151,60
-38,145,183,-53,-110,164,36,-55,-63,-108,-150,61
-37,146,183,-54,-110,165,36,-54,-63,-108,-150,61
-36,146,182,-55,-109,164,36,-53,-62,-107,-150,61
-35,147,182,-56,-108,165,36,-53,-63,-107,-150,61
-35,148,183,-56,-109,166,36,-52,-62,-106,-150,61
-35,149,184,-57,-109,167,36,-52,-62,-106,-150,61
-34,150,184,-58,-109,167,37,-50,-60,-104,-149,62
-33,151,184,-59,-108,168,37,-51,-60,-104,-149,62
-33,152,185,-59,-109,169,38,-50,-58,-103,-148,63
-32,154,186,-61,-109,170,38,-50,-58,-102,-148,64
-31,155,186,-62,-108,171,37,-50,-56,-101,-147,64
-31,156,187,-62,-109,172,38,-50,-55,-100,-146,65
-32,156,188,-62,-110,172,38,-50,-54,-99,-145,65
-32,157,189,-62,-110,173,39,-49,-53,-98,-145,65
-32,158,190,-63,-111,174,38,-50,-52,-99,-145,65
-32,158,190,-63,-111,174,38,-49,-52,-98,-144,65
-31,160,191,-64,-111,176,36,-50,-52,-98,-144,65
-30,161,191,-65,-110,176,35,-50,-51,-96,-141,67
-28,163,191,-67,-109,177,32,-52,-51,-97,-141,68
-27,165,192,-69,-109,179,30,-54,-51,-96,-140,70
-25,168,193,-71,-109,181,29,-54,-50,-95,-138,71
-24,170,194,-73,-109,182,28,-55,-48,-93,-137,73
-23,172,195,-74,-109,184,27,-55,-48,-93,-137,73
-24,173,197,-74,-110,185,27,-55,-47,-92,-136,74
-24,173,197,-74,-110,185,27,-54,-46,-91,-136,74
-24,173,197,-74,-110,185,27,-54,-47,-92,-137,73
-24,172,196,-74,-110,184,26,-55,-50,-94,-139,71
-25,171,196,-73,-110,184,25,-56,-52,-96,-139,71
-25,169,194,-72,-109,182,24,-58,-55,-98,-141,69
-26,167,193,-70,-109,180,23,-60,-58,-100,-141,69
-27,166,193,-69,-110,180,23,-61,-60,-100,-141,69
-27,165,192,-69,-109,179,22,-64,-62,-102,-142,68
-28,164,192,-68,-110,178,23,-64,-62,-101,-141,68
-29,163,192,-67,-110,178,25,-64,-62,-100,-141,69
-29,162,191,-66,-110,177,25,-64,-63,-100,-141,68
-29,161,190,-66,-109,176,25,-64,-63,-101,-142,68
-29,160,189,-65,-109,175,26,-63,-63,-101,-142,68
-29,158,187,-64,-108,173,26,-63,-64,-102,-142,67
-29,157,186,-64,-107,172,27,-62,-63,-102,-142,67
-30,156,186,-63,-108,171,27,-62,-64,-104,-143,66
-30,155,185,-62,-107,170,27,-61,-64,-104,-143,66
-31,154,185,-61,-108,170,27,-62,-65,-105,-143,66
-31,153,184,-61,-107,169,28,-61,-64,-104,-143,66
-32,152,184,-60,-108,168,28,-61,-65,-105,-144,65
-32,150,182,-59,-107,166,29,-61,-66,-105,-145,64
-33,149,182,-58,-107,166,30,-60,-66,-105,-146,64
-34,147,181,-56,-107,164,31,-60,-67,-106,-148,63
-35,146,181,-55,-108,164,31,-61,-68,-108,-150,60
-36,144,180,-54,-108,162,32,-61,-69,-110,-151,59
-37,144,181,-53,-109,163,33,-60,-68,-110,-152,59
-38,143,181,-52,-109,162,33,-61,-69,-112,-153,57
-39,143,182,-52,-110,163,34,-60,-68,-111,-152,58
-40,143,183,-51,-111,163,34,-60,-68,-111,-153,57
-40,142,182,-51,-111,162,34,-60,-69,-111,-153,57
-41,142,183,-50,-112,163,34,-60,-69,-111,-153,57
-41,142,183,-50,-112,163,33,-60,-69,-111,-153,57
-41,142,183,-50,-112,163,33,-61,-70,-112,-154,58
-41,141,182,-50,-111,162,32,-61,-70,-113,-154,57
-41,141,182,-50,-111,162,32,-62,-71,-114,-155,57
-41,140,181,-49,-111,161,31,-62,-71,-114,-156,56
-42,140,182,-49,-112,161,32,-61,-71,-114,-156,57
-42,139,181,-48,-111,160,32,-62,-72,-115,-157,56
-43,138,181,-47,-112,160,32,-61,-72,-115,-156,56
-43,138,181,-47,-112,160,32,-61,-72,-115,-156,55
-43,138,181,-47,-112,160,32,-61,-72,-115,-156,55
-43,138,181,-47,-112,160,32,-61,-72,-114,-156,55
-43,138,181,-47,-112,160,32,-61,-71,-114,-156,55
-42,138,180,-48,-111,159,31,-62,-72,-114,-156,54
-42,138,180,-48,-111,159,32,-61,-71,-114,-156,54
-42,137,179,-47,-110,158,32,-60,-70,-113,-155,55
-43,137,180,-47,-111,159,32,-61,-71,-114,-156,54
-44,137,181,-46,-112,159,32,-61,-71,-115,-156,54
-43,137,180,-47,-111,159,32,-61,-70,-115,-156,54
-44,137,181,-46,-112,159,32,-61,-71,-115,-156,54
-44,136,180,-46,-112,158,33,-60,-70,-114,-155,54
-44,137,181,-46,-112,159,32,-60,-71,-114,-156,53
-44,137,181,-46,-112,159,32,-60,-70,-114,-156,52
-44,137,181,-46,-112,159,32,-60,-71,-113,-156,52
-44,137,181,-46,-112,159,32,-60,-71,-114,-155,52
-44,137,181,-46,-112,159,32,-60,-70,-114,-155,52
-44,137,181,-46,-112,159,32,-60,-70,-114,-155,52
-44,137,181,-46,-112,159,32,-60,-70,-114,-155,52
-44,137,181,-46,-112,159,32,-60,-70,-114,-155,53
-43,137,180,-47,-111,159,31,-59,-70,-114,-155,53
-43,137,180,-47,-111,159,31,-59,-70,-114,-155,53
-43,137,180,-47,-111,159,31,-59,-69,-113,-155,53
-43,138,181,-47,-112,160,32,-59,-69,-113,-155,54
-42,138,180,-48,-111,159,31,-59,-69,-114,-156,53
-42,138,180,-48,-111,159,31,-59,-69,-114,-156,53
-43,138,181,-47,-112,160,32,-59,-68,-113,-155,54
-43,138,181,-47,-112,160,32,-59,-69,-114,-156,54
-43,138,181,-47,-112,160,33,-59,-69,-114,-156,54
-44,138,182,-47,-113,160,33,-59,-68,-114,-157,53
-44,138,182,-47,-113,160,33,-59,-68,-115,-157,52
-46,139,185,-46,-115,162,35,-58,-66,-115,-159,51
-47,139,186,-46,-116,163,38,-55,-61,-115,-160,49
-49,139,188,-45,-118,164,42,-51,-55,-118,-165,45
-53,138,191,-42,-122,165,50,-44,-45,-121,-171,39
-59,136,195,-38,-127,166,61,-33,-30,-126,-179,32
-65,133,198,-34,-131,166,74,-18,-10,-132,-190,22
-70,129,199,-29,-134,164,90,3,15,-138,-203,11
-74,125,199,-25,-136,162,107,29,46,-144,-217,-1
-76,121,197,-22,-136,159,125,61,86,-145,-228,-10
-74,120,194,-23,-134,157,141,93,132,-140,-234,-17
-68,123,191,-27,-129,157,151,121,179,-126,-232,-17
-59,133,192,-37,-125,163,153,138,218,-106,-222,-10
-48,150,198,-51,-123,174,145,138,240,-82,-204,4
-36,174,210,-69,-123,192,128,119,234,-54,-176,28
-23,203,226,-90,-124,215,101,80,189,-27,-139,60
-11,236,247,-112,-129,242,67,25,108,-1,-94,99
2,267,265,-134,-131,266,30,-38,2,23,-41,145
15,296,281,-155,-133,289,-11,-107,-125,48,19,194
28,321,293,-174,-132,307,-53,-177,-266,73,86,248
42,339,297,-190,-127,318,-93,-241,-408,90,151,300
53,349,296,-201,-121,323,-126,-294,-536,96,208,346
63,349,286,-206,-111,318,-151,-336,-642,92,252,382
69,341,272,-205,-101,307,-165,-363,-723,71,276,405
70,327,257,-198,-93,292,-170,-377,-782,21,272,412
64,309,245,-186,-90,277,-164,-379,-815,-48,243,403
54,288,234,-171,-90,261,-150,-373,-826,-125,194,379
41,264,223,-152,-91,244,-128,-354,-815,-202,133,347
25,239,214,-132,-94,227,-103,-329,-793,-282,62,307
8,215,207,-111,-99,211,-75,-300,-761,-348,-8,265
-7,188,195,-90,-101,192,-45,-267,-719,-387,-69,223
-21,157,178,-68,-99,168,-11,-225,-667,-405,-120,184
-31,124,155,-46,-93,140,22,-179,-608,-409,-163,146
-39,92,131,-26,-85,112,53,-133,-545,-396,-193,114
-45,66,111,-10,-78,89,78,-94,-486,-371,-210,88
-50,45,95,3,-72,70,97,-61,-433,-344,-220,66
-53,30,83,12,-68,57,108,-34,-386,-319,-226,49
-54,23,77,16,-65,50,112,-17,-344,-295,-227,35
-56,25,81,16,-68,53,108,-10,-308,-271,-223,27
-57,33,90,12,-73,62,102,-8,-274,-249,-217,23
-56,42,98,7,-77,70,94,-7,-243,-228,-212,21
-54,53,107,1,-80,80,88,-8,-210,-206,-203,22
-52,65,117,-6,-84,91,82,-9,-178,-184,-192,27
-49,77,126,-14,-87,102,77,-12,-149,-164,-182,32
-46,88,134,-21,-90,111,71,-15,-124,-148,-172,37
-42,98,140,-28,-91,119,67,-18,-103,-134,-163,43
-40,107,147,-33,-93,127,62,-22,-85,-123,-156,48
-37,114,151,-38,-94,133,58,-26,-70,-114,-150,52
-36,120,156,-42,-96,138,53,-30,-60,-109,-147,54
-35,124,159,-44,-97,142,52,-32,-52,-104,-145,56
-34,126,160,-46,-97,143,51,-32,-45,-101,-144,56
-34,128,162,-47,-98,145,50,-31,-41,-98,-145,55
-35,129,164,-47,-99,147,51,-30,-36,-96,-145,55
-35,129,164,-47,-99,147,51,-30,-33,-94,-145,54
-35,130,165,-47,-100,148,52,-29,-31,-93,-145,53
-36,130,166,-47,-101,148,51,-29,-28,-91,-145,53
-35,130,165,-47,-100,148,51,-29,-26,-90,-144,54
-35,131,166,-48,-100,149,49,-30,-24,-90,-144,53
-35,131,166,-48,-100,149,49,-30,-22,-89,-143,54
-35,132,167,-48,-101,150,48,-30,-21,-87,-142,54
-35,132,167,-48,-101,150,47,-31,-19,-86,-142,54
-35,132,167,-48,-101,150,47,-31,-18,-85,-142,54
-35,131,166,-48,-100,149,47,-32,-17,-84,-143,54
-34,131,165,-48,-99,148,47,-31,-15,-82,-142,53
-35,132,167,-48,-101,150,47,-31,-14,-81,-142,53
-35,132,167,-48,-101,150,47,-31,-12,-81,-141,54
-34,133,167,-49,-100,150,46,-31,-11,-81,-141,54
-34,134,168,-50,-101,151,46,-31,-10,-80,-139,55
-33,135,168,-51,-100,152,45,-32,-10,-80,-139,55
-33,135,168,-51,-100,152,44,-32,-9,-79,-138,56
-32,135,167,-51,-99,151,44,-33,-9,-78,-138,56
-32,135,167,-51,-99,151,43,-33,-8,-77,-138,56
-32,135,167,-51,-99,151,43,-33,-7,-76,-138,56
-32,135,167,-51,-99,151,43,-32,-6,-76,-138,55
-32,135,167,-51,-99,151,43,-32,-5,-75,-138,55
-32,136,168,-52,-100,152,44,-32,-4,-74,-137,56
-32,137,169,-52,-100,153,43,-32,-4,-74,-137,55
-31,138,169,-53,-100,154,43,-32,-3,-74,-136,56
-31,138,169,-53,-100,154,42,-32,-2,-73,-135,57
-30,138,168,-54,-99,153,41,-32,-2,-73,-135,57
-30,138,168,-54,-99,153,41,-32,-2,-73,-135,58
-30,138,168,-54,-99,153,40,-32,-2,-72,-135,57
-30,138,168,-54,-99,153,40,-32,-2,-72,-136,57
-31,137,168,-53,-99,153,41,-31,-1,-70,-135,58
-31,138,169,-53,-100,154,41,-31,0,-70,-134,58
-31,138,169,-53,-100,154,41,-30,1,-69,-134,58
-31,138,169,-53,-100,154,41,-30,1,-68,-133,59
-31,138,169,-53,-100,154,41,-29,2,-68,-132,60
-30,137,167,-53,-98,152,41,-29,3,-68,-131,61
-30,137,167,-53,-98,152,41,-29,3,-67,-130,61
-30,137,167,-53,-98,152,40,-29,3,-67,-130,61
-30,137,167,-53,-98,152,40,-29,4,-66,-129,61
-30,136,166,-53,-98,151,40,-28,4,-66,-129,61
-29,136,165,-53,-97,151,40,-28,5,-65,-129,61
-29,137,166,-54,-97,152,38,-28,5,-65,-129,59
-29,137,166,-54,-97,152,39,-26,6,-64,-129,60
-28,137,165,-54,-96,151,39,-25,6,-64,-128,60
-28,138,166,-55,-97,152,39,-25,7,-63,-127,61
-28,138,166,-55,-97,152,39,-25,8,-63,-127,62
-28,138,166,-55,-97,152,39,-25,8,-62,-126,63
-28,138,166,-55,-97,152,39,-25,7,-62,-126,63
-28,138,166,-55,-97,152,38,-26,7,-62,-127,63
-28,137,165,-54,-96,151,38,-26,7,-62,-127,62
-29,137,166,-54,-97,152,38,-25,8,-61,-127,62
-29,137,166,-54,-97,152,37,-25,8,-61,-127,61
-28,137,165,-54,-96,151,37,-24,9,-60,-126,61
-28,137,165,-54,-96,151,37,-23,10,-60,-125,62
-27,138,165,-55,-96,152,36,-23,10,-60,-125,62
-26,138,164,-56,-95,151,36,-22,11,-59,-124,63
-26,138,164,-56,-95,151,36,-22,11,-59,-123,64
-26,138,164,-56,-95,151,36,-22,11,-59,-123,65
-26,138,164,-56,-95,151,36,-22,11,-58,-123,65
-25,138,163,-56,-94,151,36,-21,11,-58,-123,65
-25,138,163,-56,-94,151,37,-21,11,-57,-122,65
-25,139,164,-57,-94,152,36,-21,11,-57,-123,65
-25,139,164,-57,-94,152,36,-20,12,-56,-122,65
-24,140,164,-58,-94,152,36,-19,13,-55,-121,67
-23,141,164,-59,-93,153,35,-19,12,-55,-121,67
-22,141,163,-59,-92,152,35,-19,12,-54,-120,68
-22,141,163,-59,-92,152,35,-19,12,-54,-119,69
-21,141,162,-60,-91,152,33,-21,10,-55,-120,68
-21,142,163,-60,-92,153,32,-21,10,-54,-120,68
-21,142,163,-60,-92,153,32,-21,10,-53,-119,68
-20,142,162,-61,-91,152,32,-20,9,-52,-119,68
-20,142,162,-61,-91,152,32,-20,10,-51,-118,68
-19,143,162,-62,-90,153,31,-19,10,-51,-117,68
-18,143,161,-62,-89,152,31,-18,10,-50,-116,70
-17,144,161,-63,-89,153,30,-19,10,-50,-115,70
-17,144,161,-63,-89,153,30,-19,10,-50,-114,71
-16,144,160,-64,-88,152,29,-18,10,-49,-113,73
-15,144,159,-64,-87,152,28,-19,9,-49,-113,73
-15,145,160,-65,-87,153,27,-20,9,-48,-112,73
-15,144,159,-64,-87,152,27,-20,8,-47,-111,74
-15,144,159,-64,-87,152,26,-19,8,-46,-110,75
-14,145,159,-65,-86,152,26,-19,7,-46,-109,75
-13,145,158,-66,-85,152,25,-19,6,-46,-108,75
-12,146,158,-67,-85,152,24,-19,5,-45,-106,77
-11,146,157,-67,-84,152,23,-20,3,-45,-105,78
-10,147,157,-68,-83,152,23,-20,2,-43,-103,80
-9,147,156,-69,-82,152,21,-22,0,-43,-102,81
-9,148,157,-69,-83,153,21,-22,-2,-43,-100,83
-8,148,156,-70,-82,152,20,-23,-4,-42,-99,84
-8,148,156,-70,-82,152,20,-24,-6,-41,-98,85
-8,149,157,-70,-82,153,18,-26,-9,-41,-98,85
-7,149,156,-71,-81,153,17,-26,-11,-41,-96,86
-7,150,157,-71,-82,154,17,-26,-13,-40,-94,87
-5,151,156,-73,-80,154,15,-28,-16,-41,-93,88
-5,151,156,-73,-80,154,14,-29,-18,-40,-91,90
-4,152,156,-74,-80,154,12,-31,-22,-42,-90,90
-3,152,155,-74,-79,154,10,-32,-25,-41,-88,92
-2,153,155,-75,-78,154,8,-34,-29,-42,-88,93
-1,154,155,-76,-78,155,6,-36,-33,-43,-87,94
0,154,154,-77,-77,154,6,-37,-37,-42,-86,95
0,155,155,-77,-77,155,5,-39,-41,-42,-85,96
0,156,156,-78,-78,156,3,-41,-45,-43,-84,97
1,156,155,-78,-77,156,3,-42,-49,-43,-83,99
1,157,156,-79,-77,157,2,-44,-52,-43,-80,100
2,157,155,-79,-76,156,0,-46,-57,-44,-79,102
3,157,154,-80,-75,156,-1,-48,-61,-44,-77,103
4,158,154,-81,-75,156,-3,-51,-66,-45,-77,104
4,158,154,-81,-75,156,-3,-52,-71,-45,-75,105
5,159,154,-82,-74,157,-4,-54,-75,-46,-74,107
5,159,154,-82,-74,157,-5,-55,-79,-46,-74,107
5,159,154,-82,-74,157,-6,-57,-84,-46,-73,108
6,159,153,-82,-73,156,-8,-60,-89,-48,-73,108
6,160,154,-83,-74,157,-9,-61,-92,-48,-72,109
6,160,154,-83,-74,157,-9,-63,-95,-49,-71,110
6,160,154,-83,-74,157,-10,-65,-98,-50,-70,112
6,161,155,-83,-74,158,-11,-66,-101,-51,-70,112
6,162,156,-84,-75,159,-12,-69,-105,-53,-72,112
5,162,157,-83,-76,160,-12,-70,-107,-54,-72,113
4,162,158,-83,-77,160,-12,-71,-109,-55,-74,112
3,162,159,-82,-78,161,-12,-72,-111,-57,-76,110
2,162,160,-82,-79,161,-11,-72,-112,-58,-77,109
1,162,161,-81,-80,162,-10,-73,-112,-60,-79,107
0,162,162,-81,-81,162,-10,-73,-112,-62,-81,105
-1,162,163,-80,-82,163,-8,-73,-111,-64,-82,104
-2,163,165,-80,-83,164,-7,-73,-110,-66,-84,103
-3,163,166,-80,-84,165,-6,-74,-110,-69,-86,101
-4,163,167,-79,-85,165,-5,-74,-109,-71,-89,99
-6,162,168,-78,-87,165,-4,-74,-107,-73,-92,98
-8,162,170,-77,-89,166,-2,-73,-106,-74,-94,96
-9,162,171,-76,-90,167,-2,-73,-105,-76,-97,94
-11,162,173,-75,-92,168,0,-72,-103,-77,-100,93
-13,162,175,-74,-94,169,2,-71,-101,-78,-102,91
-14,162,176,-74,-95,169,3,-71,-100,-80,-104,90
-15,162,177,-73,-96,170,3,-70,-98,-82,-107,88
-16,162,178,-73,-97,170,5,-69,-96,-84,-108,87
-17,161,178,-72,-97,170,5,-70,-95,-86,-111,85
-19,160,179,-70,-99,170,6,-69,-93,-88,-113,84
-20,160,180,-70,-100,170,7,-68,-92,-90,-115,83
-22,159,181,-68,-101,170,9,-68,-90,-91,-118,81
-23,159,182,-68,-102,171,9,-68,-89,-93,-121,78
-24,158,182,-67,-103,170,11,-67,-87,-94,-122,77
-26,158,184,-66,-105,171,12,-66,-85,-96,-125,74
-27,158,185,-65,-106,172,14,-65,-83,-97,-127,73
-27,158,185,-65,-106,172,15,-65,-81,-99,-128,71
-28,158,186,-65,-107,172,16,-65,-80,-100,-130,70
-29,158,187,-64,-108,173,16,-65,-79,-102,-132,69
-29,158,187,-64,-108,173,16,-65,-78,-103,-134,68
-30,157,187,-63,-108,172,18,-64,-76,-104,-134,67
-31,157,188,-63,-109,173,18,-64,-75,-105,-136,66
-31,157,188,-63,-109,173,19,-64,-74,-105,-137,66
-32,156,188,-62,-110,172,20,-63,-72,-105,-138,66
-32,156,188,-62,-110,172,21,-62,-71,-105,-138,65
-32,156,188,-62,-110,172,21,-61,-69,-106,-139,65
-32,156,188,-62,-110,172,22,-61,-68,-106,-139,65
-32,156,188,-62,-110,172,22,-61,-67,-106,-139,64
-32,156,188,-62,-110,172,21,-61,-66,-106,-139,64
-32,155,187,-61,-109,171,21,-60,-66,-107,-139,64
-32,155,187,-61,-109,171,21,-60,-65,-107,-140,63
-32,155,187,-61,-109,171,21,-60,-65,-107,-141,62
-32,155,187,-61,-109,171,21,-60,-65,-107,-142,61
-32,154,186,-61,-109,170,22,-59,-63,-106,-141,62
-32,154,186,-61,-109,170,22,-58,-62,-106,-142,61
-32,154,186,-61,-109,170,22,-58,-61,-105,-142,61
-32,154,186,-61,-109,170,23,-58,-61,-105,-142,61
-32,154,186,-61,-109,170,23,-58,-60,-105,-142,61
-32,154,186,-61,-109,170,23,-58,-59,-105,-142,61
-32,154,186,-61,-109,170,23,-58,-59,-106,-142,61
-33,154,187,-60,-110,171,23,-58,-58,-106,-142,61
-33,154,187,-60,-110,171,23,-58,-58,-106,-143,61
-33,154,187,-60,-110,171,23,-58,-57,-106,-143,61
-33,154,187,-60,-110,171,23,-57,-57,-105,-144,60
-33,154,187,-60,-110,171,23,-56,-56,-105,-143,60
-32,155,187,-61,-109,171,22,-56,-56,-105,-144,60
-32,155,187,-61,-109,171,23,-56,-55,-105,-143,60
-31,156,187,-62,-109,172,23,-55,-54,-105,-143,60
-31,156,187,-62,-109,172,22,-55,-54,-105,-143,60
-31,156,187,-62,-109,172,22,-55,-54,-105,-143,61
-31,156,187,-62,-109,172,22,-55,-53,-105,-143,60
-32,156,188,-62,-110,172,22,-55,-54,-105,-144,60
-32,155,187,-61,-109,171,21,-55,-54,-105,-144,60
-32,156,188,-62,-110,172,21,-55,-54,-105,-145,59
-32,156,188,-62,-110,172,22,-55,-53,-105,-145,60
-32,157,189,-62,-110,173,22,-55,-53,-105,-144,60
-31,157,188,-63,-109,173,20,-56,-54,-106,-145,59
-31,158,189,-63,-110,174,20,-56,-53,-106,-144,60
-31,158,189,-63,-110,174,21,-55,-53,-106,-144,60
-30,158,188,-64,-109,173,20,-55,-53,-106,-143,61
-30,158,188,-64,-109,173,20,-55,-53,-106,-143,61
-30,158,188,-64,-109,173,20,-55,-53,-106,-144,61
-31,158,189,-63,-110,174,20,-55,-53,-106,-144,60
-31,158,189,-63,-110,174,20,-55,-53,-106,-145,60
-31,159,190,-64,-110,175,20,-55,-53,-106,-145,60
-32,159,191,-63,-111,175,20,-55,-53,-106,-145,60
-32,160,192,-64,-112,176,20,-55,-53,-106,-145,60
-32,160,192,-64,-112,176,20,-55,-53,-107,-145,59
-32,160,192,-64,-112,176,20,-56,-54,-107,-145,59
-32,160,192,-64,-112,176,20,-56,-54,-108,-145,59
-32,161,193,-64,-112,177,19,-57,-56,-109,-145,58
-31,161,192,-65,-111,177,19,-57,-56,-109,-145,58
-31,160,191,-64,-111,176,19,-57,-56,-109,-145,59
-31,161,192,-65,-111,177,19,-57,-56,-109,-145,59
-31,161,192,-65,-111,177,19,-57,-56,-109,-145,59
-31,161,192,-65,-111,177,19,-57,-57,-109,-145,59
-31,161,192,-65,-111,177,19,-57,-57,-109,-145,59
-31,162,193,-65,-112,178,19,-57,-58,-110,-145,59
-31,162,193,-65,-112,178,19,-58,-58,-110,-145,59
-31,161,192,-65,-111,177,18,-58,-59,-111,-146,59
-32,161,193,-64,-112,177,18,-58,-60,-111,-146,59
-32,160,192,-64,-112,176,19,-58,-59,-111,-145,59
-33,160,193,-63,-113,177,18,-58,-60,-111,-146,59
-33,160,193,-63,-113,177,18,-58,-61,-111,-146,59
-33,160,193,-63,-113,177,18,-57,-61,-111,-146,58
-33,160,193,-63,-113,177,19,-57,-62,-111,-146,59
-33,160,193,-63,-113,177,19,-57,-62,-111,-146,59
-32,160,192,-64,-112,176,19,-57,-62,-111,-146,60
-32,160,192,-64,-112,176,18,-57,-62,-112,-146,60
-32,160,192,-64,-112,176,18,-58,-63,-112,-146,60
-32,160,192,-64,-112,176,17,-58,-63,-113,-147,60
-32,160,192,-64,-112,176,17,-59,-64,-113,-148,59
-33,159,192,-63,-112,176,17,-59,-64,-113,-148,59
-33,158,191,-62,-112,175,18,-59,-64,-113,-148,59
-34,158,192,-62,-113,175,18,-59,-65,-113,-148,58
-34,158,192,-62,-113,175,18,-59,-65,-113,-148,58
-34,158,192,-62,-113,175,18,-60,-65,-113,-148,59
-34,158,192,-62,-113,175,18,-60,-66,-113,-148,59
-33,158,191,-62,-112,175,18,-60,-66,-114,-148,59
-33,158,191,-62,-112,175,18,-61,-66,-114,-148,59
-33,158,191,-62,-112,175,17,-61,-66,-114,-148,59
-33,157,190,-62,-111,174,17,-61,-67,-114,-148,58
-33,157,190,-62,-111,174,17,-62,-67,-114,-149,58
-33,157,190,-62,-111,174,17,-62,-68,-114,-149,58
-33,157,190,-62,-111,174,17,-62,-68,-114,-149,58
-33,157,190,-62,-111,174,18,-62,-68,-114,-149,58
-33,157,190,-62,-111,174,18,-62,-68,-115,-149,59
-33,157,190,-62,-111,174,17,-62,-68,-115,-149,59
-33,157,190,-62,-111,174,17,-62,-68,-116,-149,59
-33,157,190,-62,-111,174,16,-62,-68,-116,-149,59
-33,157,190,-62,-111,174,16,-63,-69,-117,-150,59
-33,156,189,-61,-111,173,15,-63,-69,-117,-150,59
-33,156,189,-61,-111,173,14,-64,-70,-117,-150,58
-34,156,190,-61,-112,173,15,-63,-70,-116,-149,59
-34,157,191,-61,-112,174,14,-64,-71,-117,-150,58
-34,157,191,-61,-112,174,14,-64,-71,-117,-150,58
-34,157,191,-61,-112,174,15,-63,-71,-117,-149,58
-34,157,191,-61,-112,174,15,-63,-71,-117,-149,58
-34,157,191,-61,-112,174,15,-64,-71,-117,-149,58
-33,157,190,-62,-111,174,15,-64,-71,-117,-149,58
-33,156,189,-61,-111,173,15,-64,-71,-118,-150,58
-33,155,188,-61,-110,172,16,-63,-70,-117,-149,59
-33,155,188,-61,-110,172,16,-64,-71,-117,-150,58
-33,155,188,-61,-110,172,16,-64,-71,-117,-150,58
-34,155,189,-60,-111,172,16,-63,-71,-117,-150,58
-34,155,189,-60,-111,172,16,-63,-71,-117,-150,58
-34,155,189,-60,-111,172,17,-63,-71,-117,-150,58
-34,156,190,-61,-112,173,17,-64,-71,-117,-150,58
-34,156,190,-61,-112,173,17,-64,-71,-118,-150,58
-34,156,190,-61,-112,173,17,-64,-71,-118,-150,58
-34,156,190,-61,-112,173,17,-64,-72,-118,-150,58
-34,156,190,-61,-112,173,17,-64,-72,-119,-150,58
-34,156,190,-61,-112,173,17,-64,-72,-119,-150,58
-34,157,191,-61,-112,174,16,-64,-74,-120,-152,56
-34,157,191,-61,-112,174,16,-64,-74,-120,-152,56
-34,157,191,-61,-112,174,16,-64,-74,-120,-152,56
-34,157,191,-61,-112,174,16,-65,-74,-120,-152,56
-34,157,191,-61,-112,174,15,-65,-74,-121,-153,55
-34,157,191,-61,-112,174,15,-65,-74,-121,-153,55
-34,157,191,-61,-112,174,15,-66,-75,-122,-153,55
-34,156,190,-61,-112,173,16,-65,-74,-121,-153,56
-35,156,191,-60,-113,174,15,-66,-74,-121,-153,56
-35,156,191,-60,-113,174,16,-66,-74,-121,-153,56
-35,156,191,-60,-113,174,16,-66,-74,-120,-153,56
-35,156,191,-60,-113,174,16,-66,-74,-120,-153,56
-35,156,191,-60,-113,174,16,-66,-74,-120,-153,56
-34,156,190,-61,-112,173,16,-66,-74,-120,-152,56
-34,156,190,-61,-112,173,16,-66,-74,-120,-152,56
-34,156,190,-61,-112,173,16,-66,-74,-121,-152,56
-34,156,190,-61,-112,173,16,-66,-74,-121,-152,56
-33,156,189,-61,-111,173,15,-67,-75,-122,-153,55
-33,156,189,-61,-111,173,15,-67,-76,-123,-153,55
-33,156,189,-61,-111,173,15,-67,-76,-123,-154,55
-34,156,190,-61,-112,173,17,-66,-75,-122,-153,55
-34,156,190,-61,-112,173,17,-66,-75,-122,-153,55
-34,157,191,-61,-112,174,16,-67,-76,-123,-154,54
-34,157,191,-61,-112,174,17,-67,-76,-123,-154,54
-34,157,191,-61,-112,174,17,-67,-76,-123,-154,54
-34,157,191,-61,-112,174,17,-67,-76,-123,-154,54
-34,157,191,-61,-112,174,16,-67,-76,-123,-154,54
-34,157,191,-61,-112,174,16,-67,-76,-123,-155,54
-34,157,191,-61,-112,174,17,-67,-76,-123,-155,54
-34,157,191,-61,-112,174,16,-67,-77,-123,-155,54
-34,157,191,-61,-112,174,16,-67,-77,-123,-156,54
-34,157,191,-61,-112,174,17,-67,-77,-123,-156,54
-33,157,190,-62,-111,174,18,-67,-77,-123,-155,55
-33,158,191,-62,-112,175,18,-67,-77,-123,-155,55
-33,159,192,-63,-112,176,18,-67,-77,-123,-155,55
-32,159,191,-63,-111,175,19,-66,-77,-123,-154,56
-31,160,191,-64,-111,176,19,-67,-77,-123,-154,55
-31,161,192,-65,-111,177,20,-66,-76,-122,-154,56
-30,162,192,-66,-111,177,20,-65,-75,-122,-154,56
-29,163,192,-67,-110,178,22,-63,-73,-120,-153,57
-29,164,193,-67,-111,179,21,-63,-73,-120,-154,57
-28,166,194,-69,-111,180,21,-63,-72,-119,-154,57
-28,168,196,-70,-112,182,22,-62,-70,-117,-152,59
-27,170,197,-71,-112,184,22,-62,-70,-117,-151,59
-27,172,199,-72,-113,186,21,-63,-69,-117,-151,60
-26,173,199,-73,-112,186,21,-63,-68,-117,-150,61
-26,175,201,-74,-113,188,22,-62,-66,-115,-148,62
-26,176,202,-75,-114,189,22,-63,-65,-114,-147,62
-25,177,202,-76,-113,190,23,-62,-63,-112,-146,64
-25,178,203,-76,-114,191,23,-63,-63,-112,-146,63
-25,179,204,-77,-114,192,23,-63,-62,-110,-145,64
-25,180,205,-77,-115,193,23,-63,-61,-109,-145,65
-24,181,205,-78,-114,193,21,-64,-62,-109,-145,65
-23,182,205,-79,-114,194,20,-65,-61,-110,-145,65
-21,183,204,-81,-112,194,19,-65,-61,-109,-144,66
-20,184,204,-82,-112,194,18,-64,-59,-107,-142,68
-18,185,203,-83,-110,194,17,-64,-59,-107,-141,69
-17,186,203,-84,-110,195,16,-64,-59,-107,-141,68
-17,186,203,-84,-110,195,15,-64,-59,-107,-141,69
-18,185,203,-83,-110,194,15,-63,-60,-107,-141,69
-18,183,201,-82,-109,192,13,-65,-64,-109,-143,67
-19,181,200,-81,-109,191,12,-67,-67,-111,-144,66
-20,179,199,-79,-109,189,10,-69,-70,-113,-145,65
-21,177,198,-78,-109,188,9,-71,-73,-115,-146,64
-21,176,197,-77,-109,187,8,-73,-75,-117,-147,64
-22,175,197,-76,-109,186,7,-75,-77,-118,-148,63
-22,174,196,-76,-109,185,8,-75,-77,-118,-147,64
-22,174,196,-76,-109,185,8,-76,-78,-119,-148,64
-23,173,196,-75,-109,185,8,-76,-77,-119,-148,63
-23,172,195,-74,-109,184,10,-74,-76,-118,-148,64
-23,171,194,-74,-108,183,10,-74,-76,-118,-148,63
-23,170,193,-73,-108,182,10,-74,-76,-118,-148,63
-23,169,192,-73,-107,181,12,-72,-75,-117,-148,64
-23,168,191,-72,-107,180,12,-72,-75,-117,-148,63
-23,167,190,-72,-106,179,13,-72,-75,-118,-149,63
-23,166,189,-71,-106,178,13,-71,-75,-117,-149,64
-23,164,187,-70,-105,176,13,-72,-76,-118,-150,63
-24,163,187,-69,-105,175,14,-71,-76,-119,-149,64
-24,162,186,-69,-105,174,13,-72,-77,-120,-150,63
-24,161,185,-68,-104,173,13,-71,-77,-120,-150,63
-25,160,185,-67,-105,173,13,-71,-78,-120,-152,61
-26,160,186,-67,-106,173,14,-70,-78,-120,-152,61
-26,159,185,-66,-105,172,13,-70,-79,-121,-153,60
-27,158,185,-65,-106,172,14,-69,-79,-122,-154,59
-29,157,186,-64,-107,172,15,-68,-79,-122,-155,58
-30,156,186,-63,-108,171,16,-68,-80,-124,-156,56
-31,155,186,-62,-108,171,16,-68,-80,-124,-157,56
-31,155,186,-62,-108,171,16,-68,-81,-125,-158,55
-32,154,186,-61,-109,170,17,-68,-81,-126,-158,55
-32,154,186,-61,-109,170,17,-68,-81,-126,-158,54
-32,154,186,-61,-109,170,17,-69,-81,-126,-159,53
-33,153,186,-60,-109,170,16,-69,-82,-127,-159,52
-33,152,185,-59,-109,169,17,-68,-82,-126,-158,52
-33,152,185,-59,-109,169,17,-69,-82,-127,-159,52
-33,151,184,-59,-108,168,17,-69,-82,-127,-159,52
-33,151,184,-59,-108,168,17,-69,-83,-128,-159,52
-33,151,184,-59,-108,168,17,-69,-83,-128,-159,52
-33,151,184,-59,-108,168,17,-70,-83,-128,-159,52
-33,150,183,-58,-108,167,17,-70,-82,-129,-159,52
-33,150,183,-58,-108,167,17,-70,-83,-128,-160,51
-33,151,184,-59,-108,168,17,-70,-83,-128,-160,51
-34,151,185,-58,-109,168,18,-69,-83,-128,-160,51
-33,150,183,-58,-108,167,18,-69,-83,-128,-160,51
-34,150,184,-58,-109,167,19,-68,-82,-127,-159,51
-34,150,184,-58,-109,167,19,-68,-82,-128,-160,51
-34,150,184,-58,-109,167,19,-68,-82,-128,-160,51
-34,150,184,-58,-109,167,19,-68,-83,-128,-161,51
-34,150,184,-58,-109,167,19,-68,-83,-129,-161,50
-35,150,185,-57,-110,168,19,-69,-83,-129,-161,50
-35,150,185,-57,-110,168,19,-69,-82,-129,-161,50
-35,151,186,-58,-110,169,19,-69,-82,-129,-161,50
-35,151,186,-58,-110,169,19,-68,-82,-128,-161,50
-35,151,186,-58,-110,169,19,-68,-82,-128,-161,50
-35,151,186,-58,-110,169,19,-68,-82,-128,-161,50
-34,151,185,-58,-109,168,18,-69,-82,-129,-162,49
-34,151,185,-58,-109,168,18,-69,-82,-129,-162,49
-35,150,185,-57,-110,168,19,-68,-82,-128,-161,49
-34,150,184,-58,-109,167,19,-69,-82,-128,-162,49
-34,150,184,-58,-109,167,18,-69,-82,-128,-162,49
-34,150,184,-58,-109,167,18,-69,-82,-128,-162,48
-35,150,185,-57,-110,168,18,-69,-82,-128,-163,48
-35,150,185,-57,-110,168,19,-69,-81,-129,-163,48
-34,150,184,-58,-109,167,19,-69,-81,-129,-163,48
-34,151,185,-58,-109,168,18,-69,-82,-129,-163,47
-34,151,185,-58,-109,168,18,-69,-81,-129,-163,48
-34,151,185,-58,-109,168,18,-69,-81,-129,-163,48
-33,151,184,-59,-108,168,18,-69,-81,-129,-163,48
-33,152,185,-59,-109,169,19,-69,-81,-129,-163,48
-35,152,187,-58,-111,170,20,-68,-80,-129,-164,46
-36,152,188,-58,-112,170,23,-66,-76,-130,-166,45
-39,152,191,-56,-115,172,28,-62,-71,-132,-169,42
-43,152,195,-54,-119,174,35,-57,-63,-136,-175,37
-49,151,200,-51,-124,176,44,-48,-51,-142,-182,32
-54,151,205,-48,-129,178,56,-36,-34,-148,-191,25
-60,150,210,-45,-135,180,70,-18,-11,-155,-201,17
-63,148,211,-42,-137,180,86,8,21,-160,-210,9
-64,146,210,-41,-137,178,104,39,63,-161,-219,1
-61,145,206,-42,-133,176,120,75,114,-155,-224,-5
-54,146,200,-46,-127,173,135,112,171,-140,-221,-7
-45,152,197,-53,-121,175,144,140,222,-118,-213,-4
-35,163,198,-64,-116,181,146,156,256,-92,-199,5
-25,180,205,-77,-115,193,139,151,259,-65,-178,21
-16,205,221,-94,-118,213,120,124,222,-41,-151,43
-8,234,242,-113,-125,238,94,77,145,-21,-119,72
-1,265,266,-132,-133,266,59,15,31,-10,-83,106
6,297,291,-151,-142,294,18,-57,-113,-3,-43,145
14,329,315,-171,-150,322,-28,-135,-275,4,6,190
25,358,333,-191,-154,346,-77,-213,-440,10,59,239
37,383,346,-210,-154,365,-127,-288,-594,10,110,287
47,401,354,-224,-153,378,-169,-350,-726,4,155,330
56,410,354,-233,-149,382,-203,-398,-829,-12,185,362
61,410,349,-235,-144,380,-224,-431,-899,-45,197,381
59,403,344,-231,-142,374,-231,-447,-938,-93,189,386
53,385,332,-219,-139,359,-225,-448,-948,-151,162,378
45,357,312,-201,-133,335,-208,-434,-934,-211,120,356
34,322,288,-178,-127,305,-183,-408,-903,-273,69,325
22,282,260,-152,-119,271,-153,-375,-866,-332,11,288
11,236,225,-123,-107,231,-118,-333,-816,-374,-43,250
4,187,183,-95,-89,185,-83,-285,-753,-395,-90,211
-2,141,143,-69,-72,142,-51,-236,-685,-401,-131,174
-8,103,111,-47,-59,107,-19,-186,-615,-397,-165,140
-13,74,87,-30,-50,81,7,-139,-545,-380,-188,111
-15,56,71,-20,-43,64,24,-102,-477,-350,-199,90
-17,50,67,-16,-42,59,33,-77,-418,-319,-202,75
-19,53,72,-17,-45,63,38,-60,-366,-291,-203,65
-22,61,83,-19,-52,72,41,-48,-319,-267,-202,56
-25,71,96,-23,-60,84,42,-41,-274,-241,-196,51
-26,84,110,-29,-68,97,41,-39,-234,-217,-190,47
-28,96,124,-34,-76,110,41,-38,-196,-195,-184,46
-29,107,136,-39,-82,122,40,-39,-163,-176,-178,44
-30,117,147,-43,-88,132,39,-38,-132,-158,-172,44
-29,126,155,-48,-92,141,38,-37,-106,-142,-165,46
-28,133,161,-52,-94,147,36,-38,-86,-131,-159,48
-27,139,166,-56,-96,153,34,-39,-71,-122,-155,50
-27,143,170,-58,-98,157,34,-39,-59,-117,-151,52
-27,145,172,-59,-99,159,34,-38,-52,-113,-150,52
-27,145,172,-59,-99,159,34,-38,-46,-111,-149,53
-27,145,172,-59,-99,159,34,-38,-43,-109,-150,52
-27,145,172,-59,-99,159,34,-37,-40,-108,-151,50
-28,144,172,-58,-100,158,35,-36,-36,-106,-151,50
-28,144,172,-58,-100,158,35,-35,-33,-104,-152,48
-28,144,172,-58,-100,158,36,-34,-29,-102,-152,47
-28,145,173,-58,-100,159,35,-34,-27,-102,-153,46
-28,146,174,-59,-101,160,35,-33,-23,-100,-152,46
-28,147,175,-59,-101,161,36,-33,-20,-99,-151,47
-27,147,174,-60,-100,161,35,-33,-19,-99,-151,47
-27,148,175,-60,-101,162,35,-33,-17,-98,-150,47
-27,148,175,-60,-101,162,35,-34,-16,-97,-150,48
-27,147,174,-60,-100,161,35,-34,-15,-96,-150,48
-27,147,174,-60,-100,161,35,-34,-14,-95,-151,47
-27,147,174,-60,-100,161,35,-34,-13,-94,-152,46
-27,148,175,-60,-101,162,36,-34,-11,-93,-152,46
-27,149,176,-61,-101,163,36,-33,-10,-92,-151,46
-26,149,175,-61,-100,162,36,-33,-9,-92,-151,45
-26,150,176,-62,-101,163,36,-32,-7,-91,-150,45
-26,151,177,-62,-101,164,36,-32,-6,-90,-149,46
-25,151,176,-63,-100,164,34,-34,-6,-91,-149,46
-25,150,175,-62,-100,163,35,-33,-5,-89,-149,47
-25,150,175,-62,-100,163,34,-34,-4,-89,-149,47
-26,149,175,-61,-100,162,33,-34,-4,-89,-150,45
-26,149,175,-61,-100,162,33,-34,-3,-88,-151,45
-26,150,176,-62,-101,163,33,-34,-2,-87,-151,44
-26,150,176,-62,-101,163,33,-33,0,-86,-151,44
-26,151,177,-62,-101,164,34,-32,1,-85,-150,44
-26,152,178,-63,-102,165,32,-32,2,-86,-150,44
-25,152,177,-63,-101,165,32,-32,3,-85,-149,45
-25,152,177,-63,-101,165,33,-32,4,-85,-148,46
-25,152,177,-63,-101,165,32,-33,4,-85,-148,47
-25,152,177,-63,-101,165,32,-33,4,-84,-149,47
-25,151,176,-63,-100,164,32,-34,4,-84,-149,46
-25,151,176,-63,-100,164,33,-33,5,-83,-150,46
-25,151,176,-63,-100,164,33,-33,6,-82,-150,46
-25,151,176,-63,-100,164,34,-32,7,-81,-150,46
-24,152,176,-64,-100,164,35,-31,9,-80,-149,46
-24,152,176,-64,-100,164,35,-30,10,-79,-148,48
-24,152,176,-64,-100,164,35,-30,11,-79,-146,49
-23,152,175,-64,-99,164,34,-31,10,-80,-147,48
-23,152,175,-64,-99,164,34,-31,11,-79,-147,49
-23,152,175,-64,-99,164,34,-31,11,-78,-147,48
-23,152,175,-64,-99,164,34,-31,12,-78,-147,48
-23,152,175,-64,-99,164,34,-30,12,-77,-147,47
-23,153,176,-65,-99,165,34,-29,13,-76,-147,47
-22,153,175,-65,-98,164,34,-28,15,-75,-147,47
-22,154,176,-66,-99,165,34,-28,15,-76,-147,46
-22,154,176,-66,-99,165,34,-27,16,-75,-146,47
-22,155,177,-66,-99,166,34,-27,17,-75,-145,48
-22,155,177,-66,-99,166,34,-27,17,-75,-144,49
-22,155,177,-66,-99,166,34,-27,18,-74,-144,49
-22,155,177,-66,-99,166,34,-27,18,-74,-144,49
-22,155,177,-66,-99,166,34,-27,19,-73,-144,48
-22,155,177,-66,-99,166,34,-26,20,-72,-145,48
-22,155,177,-66,-99,166,34,-25,21,-71,-145,48
-21,155,176,-67,-98,166,35,-24,22,-70,-144,47
-21,156,177,-67,-99,167,34,-24,23,-70,-144,47
-20,156,176,-68,-98,166,35,-23,23,-70,-143,47
-20,156,176,-68,-98,166,35,-23,24,-70,-142,48
-19,156,175,-68,-97,166,36,-23,25,-69,-141,49
-19,156,175,-68,-97,166,36,-23,25,-69,-140,50
-20,155,175,-67,-97,165,35,-24,25,-69,-141,50
-20,155,175,-67,-97,165,35,-24,25,-68,-141,49
-20,154,174,-67,-97,164,36,-23,26,-66,-140,50
-20,154,174,-67,-97,164,35,-22,27,-65,-140,49
-20,154,174,-67,-97,164,36,-21,28,-64,-140,50
-20,155,175,-67,-97,165,35,-21,28,-64,-139,49
-19,155,174,-68,-96,165,36,-20,29,-64,-138,50
-19,156,175,-68,-97,166,36,-19,30,-63,-137,51
-18,156,174,-69,-96,165,35,-20,29,-64,-137,51
-18,156,174,-69,-96,165,35,-20,29,-64,-137,51
-18,156,174,-69,-96,165,35,-20,29,-64,-137,51
-18,156,174,-69,-96,165,35,-21,29,-63,-137,51
-18,156,174,-69,-96,165,35,-20,30,-62,-137,51
-17,156,173,-69,-95,165,35,-19,31,-61,-136,51
-17,156,173,-69,-95,165,35,-18,32,-61,-135,52
-17,156,173,-69,-95,165,35,-17,32,-60,-134,53
-16,157,173,-70,-94,165,34,-17,32,-60,-133,53
-15,157,172,-71,-93,165,34,-16,32,-60,-132,54
-15,158,173,-71,-94,166,34,-15,32,-59,-131,55
-14,158,172,-72,-93,165,32,-16,31,-60,-131,55
-14,158,172,-72,-93,165,32,-16,31,-59,-131,56
-13,158,171,-72,-92,165,32,-15,31,-58,-130,56
-13,158,171,-72,-92,165,31,-15,31,-57,-130,56
-13,158,171,-72,-92,165,31,-15,32,-56,-129,57
-12,159,171,-73,-91,165,30,-14,31,-56,-129,56
-11,160,171,-74,-91,166,30,-14,31,-55,-127,58
-10,161,171,-75,-90,166,29,-14,30,-55,-126,58
-10,162,172,-76,-91,167,29,-14,30,-55,-124,60
-9,162,171,-76,-90,167,27,-15,28,-55,-124,61
-9,162,171,-76,-90,167,27,-15,27,-54,-122,62
-8,162,170,-77,-89,166,26,-15,25,-53,-122,63
-8,162,170,-77,-89,166,25,-16,23,-52,-121,64
-7,163,170,-78,-88,167,23,-17,21,-52,-121,64
-7,163,170,-78,-88,167,23,-16,19,-51,-120,65
-6,164,170,-79,-88,167,22,-16,17,-50,-118,66
-5,165,170,-80,-87,168,21,-17,15,-51,-117,66
-4,166,170,-81,-87,168,19,-19,12,-51,-116,67
-4,167,171,-81,-87,169,18,-19,9,-51,-113,69
-3,167,170,-82,-86,169,17,-20,6,-51,-112,71
-2,168,170,-83,-86,169,15,-22,2,-52,-111,73
-2,168,170,-83,-86,169,14,-24,-1,-52,-110,74
-1,168,169,-83,-85,169,12,-25,-4,-52,-109,75
-1,168,169,-83,-85,169,11,-27,-8,-51,-108,76
-1,168,169,-83,-85,169,10,-28,-12,-51,-108,77
0,169,169,-84,-84,169,9,-30,-16,-52,-107,78
0,169,169,-84,-84,169,8,-31,-20,-52,-105,79
1,171,170,-86,-84,171,6,-33,-24,-53,-104,81
1,172,171,-86,-85,172,5,-35,-28,-53,-103,83
2,172,170,-87,-84,171,3,-38,-33,-54,-102,84
2,173,171,-87,-84,172,2,-40,-38,-55,-100,86
3,174,171,-88,-84,173,-1,-43,-43,-56,-101,86
3,174,171,-88,-84,173,-2,-45,-47,-57,-100,87
4,175,171,-89,-83,173,-2,-47,-51,-57,-100,88
4,176,172,-90,-84,174,-4,-49,-56,-58,-100,87
4,176,172,-90,-84,174,-5,-51,-59,-59,-99,88
4,177,173,-90,-84,175,-5,-52,-62,-59,-98,90
4,178,174,-91,-85,176,-6,-54,-65,-60,-97,91
4,179,175,-91,-85,177,-8,-57,-69,-63,-97,91
4,179,175,-91,-85,177,-9,-60,-72,-65,-97,91
3,179,176,-91,-86,178,-9,-61,-74,-65,-97,92
2,179,177,-90,-87,178,-9,-63,-77,-67,-99,91
1,179,178,-90,-88,179,-9,-65,-79,-69,-101,90
1,178,177,-89,-88,178,-8,-65,-80,-70,-101,90
0,179,179,-89,-89,179,-8,-66,-82,-72,-103,88
-2,179,181,-88,-91,180,-7,-67,-83,-74,-105,87
-3,179,182,-88,-92,181,-6,-66,-82,-75,-106,87
-3,179,182,-88,-92,181,-5,-67,-83,-78,-108,86
-5,180,185,-87,-95,183,-5,-68,-84,-80,-110,85
-6,179,185,-86,-95,182,-3,-68,-83,-83,-112,84
-8,178,186,-85,-97,182,-2,-69,-83,-85,-114,83
-9,177,186,-84,-97,182,-2,-70,-84,-88,-117,80
-11,177,188,-83,-99,183,-1,-69,-84,-90,-120,79
-13,176,189,-81,-101,183,0,-69,-84,-91,-122,78
-14,174,188,-80,-101,181,1,-68,-83,-92,-124,76
-15,174,189,-79,-102,182,2,-68,-82,-94,-126,74
-16,174,190,-79,-103,182,4,-66,-81,-95,-127,74
-17,174,191,-78,-104,183,4,-66,-80,-96,-128,73
-18,173,191,-77,-104,182,6,-65,-79,-97,-129,73
-18,173,191,-77,-104,182,6,-66,-78,-99,-131,71
-19,173,192,-77,-105,183,6,-66,-78,-101,-133,69
-20,172,192,-76,-106,182,7,-66,-77,-102,-135,68
-21,171,192,-75,-106,182,8,-66,-77,-104,-138,65
-22,171,193,-74,-107,182,9,-65,-75,-104,-140,63
-23,170,193,-73,-108,182,10,-65,-75,-106,-143,61
-24,170,194,-73,-109,182,11,-63,-73,-107,-144,60
-25,169,194,-72,-109,182,11,-63,-73,-108,-145,59
-25,169,194,-72,-109,182,12,-63,-72,-110,-147,58
-25,169,194,-72,-109,182,12,-63,-71,-112,-147,57
-25,169,194,-72,-109,182,12,-64,-71,-113,-149,56
-26,168,194,-71,-110,181,13,-64,-70,-114,-149,56
-26,167,193,-70,-109,180,14,-64,-70,-115,-151,55
-26,167,193,-70,-109,180,14,-64,-70,-116,-152,53
-27,166,193,-69,-110,180,15,-64,-69,-116,-152,53
-27,166,193,-69,-110,180,15,-64,-69,-117,-153,52
-28,165,193,-68,-110,179,16,-63,-68,-116,-153,52
-28,165,193,-68,-110,179,16,-62,-68,-117,-153,51
-28,165,193,-68,-110,179,16,-62,-67,-117,-153,51
-28,165,193,-68,-110,179,17,-62,-67,-117,-153,51
-27,165,192,-69,-109,179,16,-63,-67,-119,-154,51
-27,165,192,-69,-109,179,16,-63,-67,-119,-154,50
-27,165,192,-69,-109,179,16,-63,-67,-119,-155,50
-27,165,192,-69,-109,179,17,-63,-67,-119,-155,50
-27,164,191,-68,-109,178,18,-62,-66,-118,-155,50
-27,164,191,-68,-109,178,18,-61,-66,-118,-155,50
-27,165,192,-69,-109,179,18,-61,-66,-119,-156,48
-27,165,192,-69,-109,179,18,-61,-65,-119,-156,49
-27,165,192,-69,-109,179,19,-60,-65,-120,-156,49
-27,165,192,-69,-109,179,19,-60,-64,-120,-156,49
-28,165,193,-68,-110,179,20,-59,-63,-120,-155,51
-28,165,193,-68,-110,179,20,-59,-63,-120,-156,51
-28,165,193,-68,-110,179,20,-59,-63,-120,-157,51
-29,164,193,-67,-111,179,20,-59,-62,-120,-157,51
-29,165,194,-68,-111,180,20,-59,-62,-120,-157,50
-29,165,194,-68,-111,180,20,-58,-61,-120,-157,50
-29,165,194,-68,-111,180,20,-58,-60,-120,-157,50
-29,165,194,-68,-111,180,21,-57,-59,-120,-157,50
-29,165,194,-68,-111,180,21,-57,-59,-120,-157,51
-29,166,195,-68,-112,181,21,-56,-58,-120,-156,51
-29,165,194,-68,-111,180,21,-57,-58,-120,-156,51
-28,165,193,-68,-110,179,21,-57,-58,-120,-156,51
-29,165,194,-68,-111,180,20,-58,-58,-120,-157,50
-29,165,194,-68,-111,180,19,-58,-58,-120,-157,49
-30,165,195,-67,-112,180,19,-58,-58,-120,-158,49
-30,165,195,-67,-112,180,19,-58,-58,-120,-158,48
-30,165,195,-67,-112,180,19,-58,-58,-120,-158,47
-30,165,195,-67,-112,180,19,-58,-57,-121,-158,47
-30,165,195,-67,-112,180,19,-58,-57,-121,-158,48
-30,165,195,-67,-112,180,19,-58,-56,-121,-158,49
-30,164,194,-67,-112,179,21,-57,-55,-120,-157,50
-30,164,194,-67,-112,179,21,-57,-55,-121,-158,50
-31,164,195,-66,-113,180,21,-57,-55,-121,-158,50
-31,164,195,-66,-113,180,21,-57,-54,-121,-159,49
-31,164,195,-66,-113,180,22,-57,-54,-120,-159,49
-31,164,195,-66,-113,180,22,-57,-53,-120,-159,48
-31,165,196,-67,-113,181,23,-56,-52,-119,-159,48
-30,165,195,-67,-112,180,23,-56,-52,-120,-160,47
-30,166,196,-68,-113,181,23,-56,-51,-120,-159,48
-30,166,196,-68,-113,181,24,-56,-51,-120,-159,48
-30,167,197,-68,-113,182,24,-56,-51,-120,-159,49
-30,167,197,-68,-113,182,24,-56,-51,-121,-159,49
-30,167,197,-68,-113,182,24,-57,-51,-121,-160,48
-30,167,197,-68,-113,182,24,-57,-52,-121,-160,48
-30,167,197,-68,-113,182,24,-57,-52,-121,-161,47
-30,167,197,-68,-113,182,24,-58,-53,-121,-162,47
-31,167,198,-68,-114,183,24,-58,-53,-121,-162,47
-30,167,197,-68,-113,182,23,-58,-53,-121,-162,47
-30,167,197,-68,-113,182,23,-58,-54,-121,-162,47
-31,167,198,-68,-114,183,23,-58,-54,-122,-162,47
-31,167,198,-68,-114,183,22,-58,-55,-122,-162,47
-31,167,198,-68,-114,183,22,-59,-55,-122,-162,47
-31,167,198,-68,-114,183,22,-59,-55,-122,-163,47
-31,167,198,-68,-114,183,22,-59,-56,-122,-163,47
-31,167,198,-68,-114,183,21,-60,-56,-122,-163,46
-31,167,198,-68,-114,183,21,-60,-56,-121,-163,46
-31,167,198,-68,-114,183,21,-59,-56,-121,-163,46
-31,168,199,-68,-115,184,21,-59,-56,-121,-163,46
-30,168,198,-69,-114,183,20,-60,-57,-122,-163,46
-30,169,199,-69,-114,184,20,-60,-57,-122,-163,47
-30,169,199,-69,-114,184,20,-60,-58,-122,-162,48
-29,170,199,-70,-114,185,19,-61,-59,-123,-163,47
-29,170,199,-70,-114,185,18,-62,-60,-124,-163,47
-29,169,198,-70,-113,184,19,-61,-60,-123,-163,48
-30,169,199,-69,-114,184,19,-61,-60,-123,-163,47
-30,169,199,-69,-114,184,19,-61,-61,-123,-164,46
-30,169,199,-69,-114,184,19,-61,-61,-122,-164,46
-30,169,199,-69,-114,184,19,-61,-61,-122,-163,46
-30,169,199,-69,-114,184,19,-61,-62,-122,-163,46
-30,169,199,-69,-114,184,19,-62,-63,-123,-162,47
-29,169,198,-70,-113,184,19,-62,-63,-123,-162,47
-29,169,198,-70,-113,184,18,-63,-64,-123,-162,47
-29,169,198,-70,-113,184,18,-63,-65,-124,-162,46
-30,169,199,-69,-114,184,18,-64,-65,-124,-163,46
-30,169,199,-69,-114,184,17,-64,-66,-124,-163,46
-30,168,198,-69,-114,183,17,-64,-66,-124,-164,46
-30,168,198,-69,-114,183,17,-64,-66,-124,-164,46
-30,168,198,-69,-114,183,17,-64,-66,-124,-164,46
-30,168,198,-69,-114,183,17,-64,-66,-124,-163,46
-29,168,197,-69,-113,183,17,-64,-67,-124,-163,46
-29,168,197,-69,-113,183,17,-64,-67,-124,-163,46
-29,168,197,-69,-113,183,17,-65,-67,-124,-163,46
-29,168,197,-69,-113,183,16,-65,-68,-124,-163,46
-30,168,198,-69,-114,183,16,-65,-69,-125,-163,46
-30,167,197,-68,-113,182,17,-64,-68,-124,-163,47
-30,167,197,-68,-113,182,17,-64,-69,-124,-163,47
-30,167,197,-68,-113,182,18,-64,-69,-124,-163,47
-29,167,196,-69,-112,182,17,-65,-70,-125,-164,46
-29,167,196,-69,-112,182,17,-65,-70,-125,-163,46
-29,167,196,-69,-112,182,17,-65,-71,-125,-163,46
-29,166,195,-68,-112,181,18,-64,-70,-124,-162,46
-29,166,195,-68,-112,181,17,-65,-71,-125,-163,46
-29,165,194,-68,-111,180,17,-65,-71,-125,-163,46
-29,165,194,-68,-111,180,16,-66,-72,-125,-164,45
-29,164,193,-67,-111,179,16,-66,-73,-126,-164,45
-30,164,194,-67,-112,179,16,-65,-72,-125,-164,45
-30,164,194,-67,-112,179,17,-65,-72,-124,-164,45
-29,164,193,-67,-111,179,16,-66,-72,-125,-165,44
-29,164,193,-67,-111,179,16,-66,-72,-126,-165,45
-29,164,193,-67,-111,179,16,-66,-72,-126,-164,45
-29,164,193,-67,-111,179,16,-66,-72,-127,-164,45
-29,164,193,-67,-111,179,16,-66,-72,-127,-164,45
-29,164,193,-67,-111,179,16,-67,-73,-128,-165,45
-29,164,193,-67,-111,179,16,-67,-73,-127,-165,45
-30,163,193,-66,-111,178,17,-66,-72,-126,-164,46
-30,163,193,-66,-111,178,17,-66,-72,-125,-164,46
-29,164,193,-67,-111,179,17,-67,-73,-126,-165,45
-29,164,193,-67,-111,179,17,-66,-73,-126,-164,45
-29,164,193,-67,-111,179,18,-66,-73,-126,-164,46
-29,164,193,-67,-111,179,18,-66,-73,-126,-164,46
-29,164,193,-67,-111,179,18,-66,-73,-127,-164,46
-29,164,193,-67,-111,179,18,-66,-74,-127,-164,46
-29,164,193,-67,-111,179,18,-67,-74,-128,-164,46
-29,164,193,-67,-111,179,18,-67,-75,-128,-164,46
-30,164,194,-67,-112,179,19,-67,-74,-127,-164,47
-30,164,194,-67,-112,179,19,-67,-74,-127,-164,47
-30,164,194,-67,-112,179,19,-67,-74,-126,-164,47
-29,164,193,-67,-111,179,19,-67,-75,-127,-164,46
-29,164,193,-67,-111,179,19,-67,-75,-127,-164,46
-29,164,193,-67,-111,179,19,-67,-75,-127,-164,46
-29,165,194,-68,-111,180,20,-67,-75,-127,-164,46
-29,164,193,-67,-111,179,19,-68,-76,-128,-164,46
-29,164,193,-67,-111,179,19,-69,-77,-128,-165,45
-29,164,193,-67,-111,179,19,-69,-77,-129,-165,45
-29,163,192,-67,-110,178,21,-68,-76,-128,-164,46
-30,163,193,-66,-111,178,21,-68,-76,-128,-164,45
-30,163,193,-66,-111,178,22,-68,-76,-128,-164,45
-29,163,192,-67,-110,178,22,-68,-76,-127,-163,45
-29,164,193,-67,-111,179,21,-68,-77,-128,-164,44
-29,164,193,-67,-111,179,21,-68,-76,-128,-164,44
-29,164,193,-67,-111,179,20,-68,-76,-128,-164,44
-29,164,193,-67,-111,179,20,-69,-77,-129,-164,44
-29,163,192,-67,-110,178,20,-68,-76,-128,-163,45
-30,163,193,-66,-111,178,20,-68,-76,-128,-163,45
-30,163,193,-66,-111,178,20,-68,-76,-128,-163,45
-30,163,193,-66,-111,178,20,-68,-77,-128,-163,45
-30,163,193,-66,-111,178,20,-68,-77,-127,-163,45
-29,163,192,-67,-110,178,20,-67,-76,-127,-162,45
-29,163,192,-67,-110,178,20,-67,-76,-127,-162,45
-29,164,193,-67,-111,179,20,-68,-77,-128,-163,44
-29,164,193,-67,-111,179,20,-69,-77,-128,-162,45
-28,164,192,-68,-110,178,20,-69,-77,-129,-162,45
-28,164,192,-68,-110,178,20,-69,-77,-129,-163,44
-29,164,193,-67,-111,179,20,-69,-77,-129,-163,44
-28,163,191,-67,-109,177,20,-69,-77,-129,-163,44
-28,163,191,-67,-109,177,20,-69,-77,-128,-163,44
-29,163,192,-67,-110,178,22,-68,-76,-127,-162,45
-29,163,192,-67,-110,178,22,-68,-76,-127,-162,45
-29,163,192,-67,-110,178,23,-68,-75,-127,-161,46
-28,163,191,-67,-109,177,22,-69,-76,-128,-161,45
-28,164,192,-68,-110,178,23,-68,-76,-127,-161,45
-28,164,192,-68,-110,178,23,-68,-75,-127,-160,46
-28,165,193,-68,-110,179,23,-67,-75,-126,-160,46
-27,165,192,-69,-109,179,23,-67,-75,-126,-160,46
-27,166,193,-69,-110,180,23,-66,-75,-125,-160,46
-26,167,193,-70,-109,180,23,-65,-74,-125,-160,46
-26,168,194,-71,-110,181,24,-64,-73,-123,-159,47
-25,169,194,-72,-109,182,24,-64,-73,-123,-159,47
-24,170,194,-73,-109,182,24,-62,-71,-122,-157,48
-24,172,196,-74,-110,184,24,-63,-71,-122,-157,48
-23,173,196,-75,-109,185,23,-64,-70,-122,-157,48
-23,174,197,-75,-110,186,24,-63,-69,-121,-156,50
-22,175,197,-76,-109,186,23,-63,-68,-120,-155,50
-22,177,199,-77,-110,188,24,-62,-66,-118,-153,52
-22,179,201,-78,-111,190,24,-62,-64,-117,-153,53
-21,180,201,-79,-111,191,24,-62,-63,-116,-152,53
-21,181,202,-80,-111,192,24,-61,-61,-114,-151,54
-21,182,203,-80,-112,193,24,-61,-60,-113,-150,55
-21,183,204,-81,-112,194,23,-62,-60,-114,-150,56
-20,185,205,-82,-112,195,21,-63,-60,-114,-150,56
-18,186,204,-84,-111,195,19,-64,-60,-114,-150,56
-17,188,205,-85,-111,197,17,-65,-60,-114,-149,57
-15,189,204,-87,-109,197,15,-65,-59,-112,-148,58
-14,190,204,-88,-109,197,14,-63,-57,-110,-146,60
-13,191,204,-89,-108,198,13,-63,-57,-109,-146,60
-13,192,205,-89,-109,199,13,-62,-56,-108,-145,60
-13,191,204,-89,-108,198,13,-61,-56,-108,-145,60
-13,190,203,-88,-108,197,12,-62,-58,-109,-146,59
-14,189,203,-87,-108,196,11,-62,-61,-111,-147,58
-14,187,201,-86,-107,194,10,-64,-64,-113,-148,58
-14,185,199,-85,-106,192,8,-67,-69,-116,-149,56
-15,184,199,-84,-107,192,7,-70,-72,-117,-150,56
-16,182,198,-83,-107,190,6,-72,-74,-118,-151,56
-17,182,199,-82,-108,191,5,-74,-76,-120,-152,55
-17,181,198,-82,-107,190,6,-74,-76,-119,-152,55
-17,181,198,-82,-107,190,7,-74,-76,-119,-152,55
-18,181,199,-81,-108,190,8,-73,-75,-119,-152,54
-18,180,198,-81,-108,189,9,-73,-76,-119,-152,54
-17,180,197,-81,-107,189,9,-72,-76,-119,-151,54
-17,179,196,-81,-106,188,9,-72,-76,-119,-151,54
-17,178,195,-80,-106,187,10,-71,-75,-118,-151,55
-17,176,193,-79,-105,185,10,-71,-76,-118,-152,54
-17,175,192,-79,-104,184,10,-71,-76,-118,-152,54
-18,174,192,-78,-105,183,10,-72,-76,-120,-153,53
-18,172,190,-77,-104,181,10,-71,-76,-120,-153,52
-19,171,190,-76,-104,181,11,-71,-76,-120,-154,52
-19,170,189,-75,-104,180,11,-71,-77,-122,-155,51
-20,169,189,-74,-104,179,12,-71,-78,-122,-155,51
-21,169,190,-74,-105,180,12,-71,-78,-124,-156,50
-22,168,190,-73,-106,179,13,-70,-78,-124,-156,49
-23,168,191,-72,-107,180,13,-70,-79,-125,-158,48
-24,167,191,-71,-107,179,14,-69,-80,-126,-159,47
-25,166,191,-70,-108,179,15,-69,-80,-127,-160,45
-26,166,192,-70,-109,179,16,-68,-80,-127,-161,45
-26,165,191,-69,-108,178,16,-68,-80,-127,-162,44
-26,165,191,-69,-108,178,17,-69,-81,-128,-163,43
-26,164,190,-69,-108,177,17,-69,-81,-128,-163,42
-26,164,190,-69,-108,177,17,-69,-82,-129,-164,42
-26,163,189,-68,-107,176,17,-69,-81,-129,-163,42
-26,162,188,-68,-107,175,17,-69,-82,-130,-163,41
-26,162,188,-68,-107,175,16,-70,-83,-131,-164,41
-26,162,188,-68,-107,175,16,-70,-84,-131,-164,40
-26,161,187,-67,-106,174,16,-70,-85,-132,-165,40
-27,161,188,-67,-107,175,17,-69,-84,-131,-164,41
-27,161,188,-67,-107,175,17,-69,-85,-131,-164,40
-27,160,187,-66,-107,174,17,-69,-85,-132,-165,40
-27,160,187,-66,-107,174,17,-69,-86,-133,-166,39
-27,160,187,-66,-107,174,17,-69,-86,-133,-166,39
-27,159,186,-66,-106,173,17,-69,-86,-134,-166,39
-27,159,186,-66,-106,173,17,-69,-85,-134,-166,39
-27,159,186,-66,-106,173,17,-69,-85,-135,-166,38
-27,159,186,-66,-106,173,16,-69,-86,-135,-167,38
-28,158,186,-65,-107,172,17,-69,-85,-134,-166,39
-28,158,186,-65,-107,172,16,-69,-85,-134,-167,39
-29,157,186,-64,-107,172,17,-68,-84,-133,-166,40
-29,157,186,-64,-107,172,17,-68,-84,-133,-166,40
-29,157,186,-64,-107,172,18,-68,-84,-133,-166,40
-29,157,186,-64,-107,172,18,-68,-84,-132,-166,40
-29,157,186,-64,-107,172,19,-67,-83,-132,-166,41
-28,158,186,-65,-107,172,19,-68,-84,-133,-167,40
-28,158,186,-65,-107,172,19,-68,-84,-133,-167,40
-28,158,186,-65,-107,172,18,-69,-84,-133,-167,40
-28,158,186,-65,-107,172,18,-69,-84,-133,-167,39
-28,159,187,-65,-107,173,18,-69,-84,-133,-167,39
-28,159,187,-65,-107,173,18,-69,-83,-133,-166,40
-28,159,187,-65,-107,173,18,-68,-83,-133,-166,40
-28,159,187,-65,-107,173,19,-68,-83,-133,-166,40
-28,159,187,-65,-107,173,19,-68,-82,-133,-165,40
-27,159,186,-66,-106,173,18,-69,-83,-134,-166,40
-27,159,186,-66,-106,173,18,-68,-83,-133,-166,40
-27,159,186,-66,-106,173,18,-68,-83,-133,-166,40
-27,159,186,-66,-106,173,18,-68,-83,-133,-165,41
-27,159,186,-66,-106,173,17,-68,-83,-133,-166,40
-27,159,186,-66,-106,173,17,-68,-84,-133,-166,40
-27,158,185,-65,-106,172,18,-67,-82,-133,-166,41
-28,158,186,-65,-107,172,19,-67,-81,-133,-166,40
-29,159,188,-65,-108,174,20,-66,-80,-134,-168,39
-31,158,189,-63,-110,174,24,-63,-75,-135,-169,37
-34,158,192,-62,-113,175,30,-59,-69,-137,-172,34
-38,158,196,-60,-117,177,37,-53,-61,-141,-178,30
-44,157,201,-56,-122,179,48,-43,-48,-145,-184,26
-50,156,206,-53,-128,181,60,-29,-31,-152,-194,18
-54,154,208,-50,-131,181,74,-9,-8,-158,-204,10
-57,152,209,-47,-133,181,91,18,23,-162,-214,2
-58,149,207,-45,-132,178,109,52,65,-162,-222,-6
-54,147,201,-46,-127,174,126,89,115,-155,-226,-12
-46,150,196,-52,-121,173,140,124,169,-140,-223,-12
-36,157,193,-60,-114,175,147,149,215,-119,-214,-8
-26,170,196,-72,-111,183,146,159,245,-95,-199,3
-16,190,206,-87,-111,198,136,147,243,-68,-176,22
-6,216,222,-105,-114,219,115,113,201,-43,-146,48
3,246,243,-124,-120,245,85,60,119,-24,-111,80
11,277,266,-144,-127,272,49,-7,2,-10,-73,116
19,309,290,-164,-135,300,6,-82,-142,2,-28,158
29,339,310,-184,-140,325,-41,-161,-300,16,24,204
41,366,325,-203,-142,346,-90,-238,-460,25,79,253
52,389,337,-220,-142,363,-137,-311,-608,27,130,299
63,403,340,-233,-138,372,-177,-370,-731,24,172,339
71,409,338,-240,-133,374,-207,-414,-824,6,198,366
74,407,333,-240,-129,370,-223,-441,-888,-31,203,381
70,397,327,-233,-128,362,-226,-454,-924,-85,188,382
62,378,316,-220,-127,347,-218,-452,-931,-147,154,368
52,349,297,-200,-122,323,-199,-433,-915,-213,107,343
39,315,276,-177,-118,296,-174,-406,-887,-283,49,308
25,277,252,-151,-113,265,-143,-370,-848,-342,-10,270
14,233,219,-123,-102,226,-108,-326,-795,-381,-64,230
7,186,179,-96,-86,183,-75,-275,-731,-398,-110,191
0,143,143,-71,-71,143,-42,-224,-663,-403,-149,154
-7,107,114,-50,-60,111,-12,-175,-594,-396,-181,121
-10,80,90,-35,-50,85,12,-130,-526,-375,-201,93
-13,64,77,-25,-45,71,26,-96,-462,-344,-209,74
-14,58,72,-22,-43,65,34,-74,-406,-314,-211,61
-17,61,78,-22,-47,70,39,-58,-358,-289,-211,50
-20,68,88,-24,-54,78,41,-48,-313,-264,-209,41
-21,79,100,-29,-60,90,41,-42,-269,-239,-203,37
-23,91,114,-34,-68,103,41,-39,-229,-214,-195,36
-24,103,127,-39,-75,115,41,-38,-192,-193,-189,34
-24,114,138,-45,-81,126,41,-37,-159,-174,-182,34
-24,124,148,-50,-86,136,40,-36,-129,-156,-175,37
-23,132,155,-54,-89,144,39,-35,-105,-142,-167,40
-22,139,161,-58,-91,150,37,-37,-86,-131,-162,42
-21,144,165,-61,-93,155,36,-38,-73,-124,-159,44
-21,148,169,-63,-95,159,35,-38,-62,-119,-156,45
-21,150,171,-64,-96,161,35,-37,-56,-116,-155,45
-21,151,172,-65,-96,162,35,-36,-51,-114,-155,45
-21,151,172,-65,-96,162,36,-35,-47,-112,-156,44
-22,151,173,-64,-97,162,36,-35,-44,-111,-157,42
-22,151,173,-64,-97,162,37,-34,-41,-110,-158,40
-22,150,172,-64,-97,161,38,-32,-36,-108,-158,40
-23,150,173,-63,-98,162,38,-32,-34,-106,-158,39
-23,150,173,-63,-98,162,38,-31,-31,-105,-158,38
-23,151,174,-64,-98,163,39,-31,-28,-104,-158,38
-22,151,173,-64,-97,162,38,-32,-27,-104,-158,37
-22,151,173,-64,-97,162,38,-32,-25,-103,-158,38
-22,151,173,-64,-97,162,37,-32,-23,-102,-158,38
-22,151,173,-64,-97,162,37,-32,-22,-101,-158,37
-22,151,173,-64,-97,162,37,-32,-20,-101,-158,37
-22,151,173,-64,-97,162,36,-32,-19,-100,-159,36
-22,152,174,-65,-98,163,37,-32,-17,-99,-159,36
-22,153,175,-65,-98,164,37,-31,-15,-98,-158,36
-21,154,175,-66,-98,165,37,-31,-15,-97,-158,36
-21,154,175,-66,-98,165,37,-31,-14,-96,-157,36
-21,155,176,-67,-98,166,38,-31,-12,-95,-157,37
-20,155,175,-67,-97,165,37,-32,-12,-96,-157,37
-20,155,175,-67,-97,165,36,-32,-11,-95,-157,38
-21,154,175,-66,-98,165,37,-31,-10,-94,-156,39
-21,154,175,-66,-98,165,37,-31,-9,-93,-156,38
-20,154,174,-67,-97,164,37,-31,-8,-93,-156,38
-20,154,174,-67,-97,164,37,-31,-7,-91,-155,38
-20,154,174,-67,-97,164,37,-30,-6,-90,-155,38
-19,154,173,-67,-96,164,37,-30,-6,-91,-155,37
-19,154,173,-67,-96,164,38,-29,-5,-90,-154,38
-18,154,172,-68,-95,163,38,-29,-4,-89,-153,39
-18,154,172,-68,-95,163,39,-29,-3,-89,-153,39
-18,154,172,-68,-95,163,39,-29,-2,-89,-153,39
-18,154,172,-68,-95,163,39,-29,-1,-88,-153,39
-19,154,173,-67,-96,164,39,-30,-1,-88,-154,39
-19,154,173,-67,-96,164,39,-29,0,-87,-154,39
-19,154,173,-67,-96,164,39,-29,0,-87,-154,39
-18,155,173,-68,-95,164,39,-28,1,-86,-154,39
-18,155,173,-68,-95,164,39,-28,2,-85,-153,40
-17,156,173,-69,-95,165,39,-28,2,-85,-153,39
-17,157,174,-70,-95,166,39,-28,3,-84,-153,40
-16,157,173,-70,-94,165,38,-30,3,-85,-153,40
-16,157,173,-70,-94,165,39,-30,3,-85,-152,41
-16,157,173,-70,-94,165,39,-30,4,-84,-152,41
-16,158,174,-71,-95,166,39,-30,4,-83,-152,41
-17,158,175,-70,-96,167,39,-29,4,-83,-152,41
-17,158,175,-70,-96,167,39,-28,5,-82,-152,40
-17,157,174,-70,-95,166,40,-27,7,-80,-151,41
-17,157,174,-70,-95,166,40,-26,7,-79,-150,41
-16,157,173,-70,-94,165,39,-27,7,-79,-150,41
-16,157,173,-70,-94,165,40,-26,8,-79,-149,41
-16,157,173,-70,-94,165,40,-26,8,-79,-149,41
-15,156,171,-70,-93,164,40,-26,9,-78,-149,42
-15,156,171,-70,-93,164,40,-27,9,-78,-149,42
-15,156,171,-70,-93,164,39,-27,10,-77,-149,42
-16,156,172,-70,-94,164,40,-26,11,-76,-148,42
-16,156,172,-70,-94,164,40,-25,11,-75,-148,42
-16,156,172,-70,-94,164,40,-24,12,-74,-148,42
-16,157,173,-70,-94,165,39,-25,11,-75,-148,41
-15,157,172,-71,-93,165,40,-24,12,-75,-147,41
-15,157,172,-71,-93,165,40,-23,12,-74,-146,42
-15,158,173,-71,-94,166,40,-23,13,-74,-146,42
-14,158,172,-72,-93,165,39,-23,12,-75,-147,42
-14,158,172,-72,-93,165,38,-23,12,-75,-147,42
-14,158,172,-72,-93,165,38,-23,12,-75,-147,41
-15,159,174,-72,-94,167,38,-22,13,-75,-147,41
-14,159,173,-72,-93,166,39,-21,13,-74,-146,41
-14,159,173,-72,-93,166,39,-20,14,-73,-146,42
-14,159,173,-72,-93,166,40,-19,15,-73,-145,42
-14,159,173,-72,-93,166,40,-18,16,-72,-144,43
-13,159,172,-73,-92,166,40,-17,16,-71,-143,44
-13,159,172,-73,-92,166,41,-17,17,-71,-142,45
-13,159,172,-73,-92,166,40,-17,17,-70,-142,46
-12,159,171,-73,-91,165,39,-18,16,-71,-143,45
-12,158,170,-73,-91,164,39,-17,16,-69,-142,46
-12,158,170,-73,-91,164,39,-17,16,-69,-142,45
-12,158,170,-73,-91,164,39,-16,17,-68,-142,45
-11,158,169,-73,-90,164,38,-16,16,-68,-142,44
-11,158,169,-73,-90,164,38,-15,16,-68,-141,45
-11,158,169,-73,-90,164,38,-14,16,-67,-140,45
-10,158,168,-74,-89,163,38,-14,17,-67,-139,46
-10,158,168,-74,-89,163,37,-13,17,-66,-138,47
-9,158,167,-74,-88,163,37,-13,17,-66,-137,48
-9,158,167,-74,-88,163,37,-12,17,-65,-136,49
-8,159,167,-75,-87,163,35,-13,16,-65,-137,48
-8,159,167,-75,-87,163,35,-12,15,-64,-136,49
-8,160,168,-76,-88,164,36,-11,15,-63,-135,50
-7,160,167,-76,-87,164,35,-11,14,-64,-135,50
-6,161,167,-77,-86,164,35,-10,13,-63,-133,51
-5,161,166,-78,-85,164,34,-10,12,-63,-132,51
-4,162,166,-79,-85,164,34,-10,11,-62,-131,53
-3,163,166,-80,-84,165,33,-11,9,-62,-130,53
-2,163,165,-80,-83,164,33,-11,8,-61,-129,54
-2,164,166,-81,-84,165,32,-12,6,-61,-129,54
-1,165,166,-82,-83,166,31,-12,5,-61,-128,55
0,165,165,-82,-82,165,30,-14,2,-61,-128,55
1,166,165,-83,-82,166,30,-14,0,-60,-126,56
2,167,165,-84,-81,166,28,-15,-2,-61,-126,56
2,168,166,-85,-82,167,28,-15,-4,-61,-124,58
3,169,166,-86,-81,168,26,-16,-7,-62,-124,58
4,169,165,-86,-80,167,25,-17,-10,-62,-122,60
5,170,165,-87,-80,168,24,-19,-13,-62,-121,61
6,171,165,-88,-79,168,22,-21,-17,-63,-121,62
6,171,165,-88,-79,168,21,-22,-20,-63,-119,64
7,171,164,-89,-78,168,20,-23,-23,-63,-118,65
7,171,164,-89,-78,168,19,-25,-27,-62,-117,66
7,172,165,-89,-79,169,17,-26,-30,-62,-116,68
8,173,165,-90,-78,169,15,-28,-34,-63,-116,68
8,174,166,-91,-79,170,14,-30,-38,-63,-114,70
9,175,166,-92,-78,171,12,-32,-42,-64,-114,71
10,176,166,-93,-78,171,10,-35,-47,-65,-113,71
11,177,166,-94,-77,172,9,-37,-51,-65,-112,73
11,178,167,-94,-78,173,7,-40,-56,-67,-111,74
11,178,167,-94,-78,173,5,-43,-61,-68,-111,75
11,179,168,-95,-78,174,4,-46,-65,-68,-110,76
11,179,168,-95,-78,174,2,-48,-70,-69,-109,77
11,179,168,-95,-78,174,1,-50,-74,-70,-109,78
11,179,168,-95,-78,174,0,-52,-78,-71,-108,79
11,180,169,-95,-79,175,-1,-54,-81,-71,-107,80
12,180,168,-96,-78,174,-2,-57,-85,-72,-107,80
12,181,169,-96,-78,175,-3,-59,-88,-73,-107,81
12,182,170,-97,-79,176,-3,-61,-91,-74,-106,81
12,182,170,-97,-79,176,-3,-63,-93,-75,-106,82
12,183,171,-97,-79,177,-5,-66,-96,-77,-107,81
11,183,172,-97,-80,178,-5,-67,-97,-77,-107,81
10,182,172,-96,-81,177,-5,-69,-99,-78,-109,81
9,182,173,-95,-82,178,-4,-69,-99,-78,-109,81
8,182,174,-95,-83,178,-4,-70,-101,-80,-111,80
7,181,174,-94,-83,178,-3,-70,-100,-81,-111,80
6,181,175,-93,-84,178,-2,-71,-101,-83,-113,79
6,182,176,-94,-85,179,-1,-71,-101,-86,-114,78
4,181,177,-92,-86,179,0,-71,-100,-87,-115,77
3,181,178,-92,-87,180,1,-72,-101,-90,-117,76
2,181,179,-91,-88,180,1,-73,-101,-93,-119,74
1,180,179,-90,-89,180,3,-73,-100,-94,-121,73
-1,179,180,-89,-90,180,4,-72,-99,-95,-123,72
-2,179,181,-88,-91,180,4,-73,-99,-97,-125,69
-3,178,181,-87,-92,180,5,-72,-98,-98,-127,69
-4,178,182,-87,-93,180,6,-72,-97,-99,-129,67
-5,178,183,-86,-94,181,7,-71,-95,-100,-130,66
-6,177,183,-85,-94,180,7,-72,-94,-101,-132,65
-7,177,184,-85,-95,181,9,-71,-92,-102,-133,64
-8,177,185,-84,-96,181,9,-71,-92,-104,-136,63
-9,177,186,-84,-97,182,10,-72,-91,-106,-138,61
-10,176,186,-83,-98,181,11,-71,-90,-107,-140,60
-12,176,188,-82,-100,182,12,-71,-88,-108,-141,59
-13,175,188,-81,-100,182,12,-71,-87,-110,-144,57
-14,175,189,-80,-101,182,14,-70,-85,-110,-144,56
-14,175,189,-80,-101,182,14,-70,-85,-111,-146,54
-15,175,190,-80,-102,183,15,-70,-84,-113,-147,53
-16,174,190,-79,-103,182,16,-69,-82,-113,-148,52
-16,174,190,-79,-103,182,16,-69,-82,-115,-149,51
-17,173,190,-78,-103,182,16,-69,-82,-116,-151,49
-18,172,190,-77,-104,181,17,-68,-81,-116,-152,49
-19,171,190,-76,-104,181,19,-67,-80,-116,-152,49
-19,171,190,-76,-104,181,19,-67,-79,-117,-153,48
-20,170,190,-75,-105,180,19,-67,-79,-117,-154,47
-20,170,190,-75,-105,180,19,-67,-78,-118,-155,46
-19,170,189,-75,-104,180,20,-66,-77,-118,-156,46
-19,170,189,-75,-104,180,20,-66,-76,-118,-156,46
-19,170,189,-75,-104,180,20,-65,-75,-118,-156,45
-19,170,189,-75,-104,180,20,-65,-75,-119,-157,45
-19,170,189,-75,-104,180,20,-65,-75,-120,-157,44
-20,169,189,-74,-104,179,21,-64,-74,-119,-157,45
-20,169,189,-74,-104,179,21,-64,-74,-120,-157,44
-20,168,188,-74,-104,178,21,-64,-74,-120,-158,44
-21,168,189,-73,-105,179,21,-64,-73,-120,-158,43
-21,168,189,-73,-105,179,22,-63,-73,-120,-159,43
-21,168,189,-73,-105,179,22,-63,-72,-120,-158,43
-21,168,189,-73,-105,179,23,-62,-71,-119,-158,44
-21,169,190,-74,-105,180,23,-61,-71,-119,-158,44
-21,169,190,-74,-105,180,23,-60,-70,-120,-158,44
-21,168,189,-73,-105,179,23,-60,-70,-120,-159,44
-21,168,189,-73,-105,179,22,-61,-70,-120,-159,43
-21,168,189,-73,-105,179,22,-61,-70,-120,-160,43
-21,168,189,-73,-105,179,22,-61,-70,-121,-161,43
-21,168,189,-73,-105,179,22,-61,-69,-120,-161,42
-21,168,189,-73,-105,179,22,-61,-69,-120,-161,42
-21,169,190,-74,-105,180,23,-60,-68,-120,-160,43
-21,169,190,-74,-105,180,24,-60,-67,-119,-160,43
-21,169,190,-74,-105,180,24,-59,-66,-119,-159,43
-20,169,189,-74,-104,179,25,-59,-66,-119,-159,44
-20,169,189,-74,-104,179,25,-59,-66,-120,-159,44
-20,169,189,-74,-104,179,25,-60,-65,-120,-159,44
-21,168,189,-73,-105,179,25,-60,-65,-120,-159,44
-21,168,189,-73,-105,179,24,-60,-65,-121,-159,43
-21,168,189,-73,-105,179,25,-60,-65,-120,-160,43
-21,168,189,-73,-105,179,24,-60,-64,-120,-160,43
-21,169,190,-74,-105,180,24,-59,-64,-120,-160,43
-21,169,190,-74,-105,180,24,-59,-63,-119,-160,44
-21,170,191,-74,-106,181,25,-59,-63,-118,-160,44
-21,171,192,-75,-106,182,24,-60,-63,-120,-160,43
-21,171,192,-75,-106,182,24,-60,-63,-120,-160,43
-20,171,191,-75,-105,181,24,-59,-63,-120,-160,44
-21,171,192,-75,-106,182,24,-59,-63,-120,-161,43
-21,170,191,-74,-106,181,25,-58,-62,-119,-160,44
-21,169,190,-74,-105,180,25,-57,-62,-120,-161,44
-21,169,190,-74,-105,180,25,-57,-62,-120,-161,44
-21,169,190,-74,-105,180,26,-57,-62,-120,-161,43
-21,169,190,-74,-105,180,26,-57,-62,-120,-161,43
-21,170,191,-74,-106,181,25,-57,-62,-120,-161,43
-21,170,191,-74,-106,181,25,-58,-62,-121,-161,43
-21,170,191,-74,-106,181,25,-59,-63,-121,-161,43
-22,170,192,-74,-107,181,24,-59,-63,-121,-161,42
-22,170,192,-74,-107,181,23,-59,-64,-121,-162,42
-23,170,193,-73,-108,182,23,-59,-64,-122,-162,42
-23,170,193,-73,-108,182,23,-60,-65,-122,-162,42
-23,170,193,-73,-108,182,23,-60,-65,-122,-162,41
-23,171,194,-74,-108,183,23,-60,-65,-123,-162,41
-23,171,194,-74,-108,183,23,-60,-65,-123,-162,42
-22,171,193,-74,-107,182,24,-60,-65,-123,-162,42
-22,172,194,-75,-108,183,23,-61,-66,-125,-163,41
-21,172,193,-75,-107,183,23,-61,-67,-125,-163,41
-21,172,193,-75,-107,183,23,-62,-68,-125,-163,41
-21,171,192,-75,-106,182,22,-62,-68,-125,-163,41
-21,171,192,-75,-106,182,22,-63,-69,-125,-163,40
-22,171,193,-74,-107,182,23,-62,-68,-124,-162,41
-21,171,192,-75,-106,182,22,-63,-70,-125,-163,40
-21,171,192,-75,-106,182,22,-63,-70,-125,-163,40
-21,171,192,-75,-106,182,22,-63,-70,-125,-163,41
-21,172,193,-75,-107,183,22,-63,-70,-124,-162,41
-20,172,192,-76,-106,182,22,-63,-70,-124,-162,42
-20,172,192,-76,-106,182,21,-63,-71,-124,-162,42
-20,172,192,-76,-106,182,21,-64,-71,-124,-162,42
-20,172,192,-76,-106,182,20,-64,-72,-125,-163,42
-21,172,193,-75,-107,183,20,-64,-73,-125,-163,41
-21,172,193,-75,-107,183,20,-64,-74,-125,-163,41
-21,172,193,-75,-107,183,20,-64,-75,-125,-164,41
-21,171,192,-75,-106,182,20,-64,-75,-125,-164,41
-21,171,192,-75,-106,182,20,-64,-76,-126,-164,41
-21,171,192,-75,-106,182,20,-65,-77,-126,-164,41
-21,171,192,-75,-106,182,19,-65,-77,-127,-164,41
-22,171,193,-74,-107,182,20,-64,-78,-126,-163,42
-22,170,192,-74,-107,181,19,-64,-79,-127,-164,42
-22,169,191,-73,-106,180,19,-65,-80,-127,-164,41
-22,168,190,-73,-106,179,19,-65,-80,-126,-164,42
-23,168,191,-72,-107,180,19,-65,-81,-127,-164,41
-23,167,190,-72,-106,179,19,-65,-81,-127,-165,41
-23,167,190,-72,-106,179,20,-65,-81,-127,-165,41
-23,168,191,-72,-107,180,20,-66,-82,-127,-165,42
-22,168,190,-73,-106,179,20,-66,-82,-127,-164,42
-22,168,190,-73,-106,179,20,-66,-83,-127,-164,42
-22,169,191,-73,-106,180,19,-67,-84,-129,-165,41
-22,168,190,-73,-106,179,19,-66,-84,-128,-164,42
-22,168,190,-73,-106,179,19,-66,-84,-128,-164,42
-22,168,190,-73,-106,179,19,-67,-84,-128,-165,42
-22,168,190,-73,-106,179,19,-67,-84,-128,-165,42
-22,168,190,-73,-106,179,19,-67,-84,-128,-165,42
-22,168,190,-73,-106,179,19,-67,-84,-128,-165,42
-22,168,190,-73,-106,179,19,-67,-84,-128,-165,42
-21,168,189,-73,-105,179,18,-68,-85,-129,-165,41
-21,168,189,-73,-105,179,18,-68,-85,-130,-165,41
-21,168,189,-73,-105,179,18,-68,-85,-130,-165,41
-21,168,189,-73,-105,179,18,-69,-85,-130,-165,41
-21,168,189,-73,-105,179,17,-69,-86,-130,-166,40
-22,168,190,-73,-106,179,18,-68,-85,-129,-165,41
-22,167,189,-72,-105,178,18,-68,-85,-129,-165,41
-22,167,189,-72,-105,178,18,-68,-85,-129,-166,40
-22,167,189,-72,-105,178,18,-68,-86,-129,-166,40
-22,167,189,-72,-105,178,18,-68,-86,-129,-166,40
-22,167,189,-72,-105,178,18,-68,-86,-129,-166,40
-22,167,189,-72,-105,178,18,-68,-86,-129,-166,41
-22,167,189,-72,-105,178,18,-69,-86,-129,-166,41
-22,167,189,-72,-105,178,17,-69,-86,-129,-166,41
-22,167,189,-72,-105,178,17,-69,-86,-129,-166,41
-23,166,189,-71,-106,178,17,-68,-85,-128,-166,41
-23,166,189,-71,-106,178,17,-68,-86,-129,-166,41
-23,166,189,-71,-106,178,17,-68,-86,-129,-166,41
-23,166,189,-71,-106,178,17,-68,-86,-129,-166,41
-23,166,189,-71,-106,178,17,-68,-86,-130,-166,41
-23,166,189,-71,-106,178,17,-68,-87,-130,-166,41
-22,166,188,-72,-105,177,16,-69,-88,-132,-167,39
-22,166,188,-72,-105,177,15,-69,-88,-132,-167,39
-22,166,188,-72,-105,177,15,-70,-88,-132,-167,39
-22,166,188,-72,-105,177,15,-70,-88,-132,-167,38
-22,167,189,-72,-105,178,15,-70,-88,-132,-167,38
-23,167,190,-72,-106,179,15,-69,-88,-132,-167,38
-23,167,190,-72,-106,179,14,-69,-88,-131,-168,38
-23,166,189,-71,-106,178,15,-68,-87,-131,-167,39
-22,167,189,-72,-105,178,15,-69,-88,-131,-168,39
-22,167,189,-72,-105,178,15,-69,-88,-131,-167,39
-22,167,189,-72,-105,178,15,-69,-88,-131,-167,40
-22,167,189,-72,-105,178,15,-69,-88,-131,-168,40
-22,167,189,-72,-105,178,15,-69,-88,-131,-168,40
-22,167,189,-72,-105,178,15,-69,-88,-131,-168,40
-22,166,188,-72,-105,177,14,-69,-88,-131,-168,40
-23,166,189,-71,-106,178,15,-68,-87,-131,-168,41
-23,166,189,-71,-106,178,14,-68,-88,-131,-168,40
-23,166,189,-71,-106,178,15,-68,-88,-131,-168,40
-22,166,188,-72,-105,177,14,-69,-89,-132,-169,40
-22,166,188,-72,-105,177,14,-69,-89,-132,-169,40
-21,166,187,-72,-104,177,15,-69,-89,-132,-168,40
-21,166,187,-72,-104,177,15,-70,-89,-132,-168,40
-21,166,187,-72,-104,177,15,-70,-90,-132,-168,40
-21,166,187,-72,-104,177,14,-70,-90,-132,-168,40
-22,166,188,-72,-105,177,14,-70,-90,-132,-168,39
-22,166,188,-72,-105,177,14,-70,-90,-132,-168,39
-22,166,188,-72,-105,177,14,-69,-90,-132,-168,39
-22,166,188,-72,-105,177,14,-69,-90,-132,-168,39
-22,167,189,-72,-105,178,14,-69,-90,-132,-168,40
-21,167,188,-73,-104,178,15,-69,-89,-132,-168,40
-21,167,188,-73,-104,178,15,-69,-90,-133,-168,40
-21,167,188,-73,-104,178,15,-69,-90,-133,-168,40
-22,166,188,-72,-105,177,15,-69,-91,-133,-168,39
-22,166,188,-72,-105,177,15,-69,-91,-133,-168,39
-22,166,188,-72,-105,177,15,-69,-91,-133,-169,38
-22,165,187,-71,-104,176,16,-69,-90,-132,-168,39
-22,165,187,-71,-104,176,16,-69,-90,-132,-169,39
-23,165,188,-71,-105,177,17,-69,-90,-132,-168,39
-23,166,189,-71,-106,178,17,-69,-90,-132,-168,39
-22,166,188,-72,-105,177,16,-70,-91,-133,-169,38
-22,166,188,-72,-105,177,16,-70,-91,-133,-169,39
-21,166,187,-72,-104,177,16,-70,-91,-133,-169,39
-21,166,187,-72,-104,177,16,-71,-91,-133,-169,39
-21,166,187,-72,-104,177,16,-71,-90,-133,-169,39
-21,166,187,-72,-104,177,16,-71,-90,-133,-169,39
-21,167,188,-73,-104,178,16,-71,-90,-132,-169,39
-21,167,188,-73,-104,178,16,-71,-90,-132,-169,39
-21,167,188,-73,-104,178,16,-71,-89,-132,-169,39
-21,167,188,-73,-104,178,17,-71,-89,-132,-169,39
-20,167,187,-73,-103,177,16,-72,-91,-133,-170,38
-20,167,187,-73,-103,177,16,-72,-91,-133,-170,38
-21,167,188,-73,-104,178,17,-71,-91,-132,-169,39
-21,167,188,-73,-104,178,17,-71,-91,-133,-169,39
-21,167,188,-73,-104,178,18,-72,-91,-132,-169,38
-21,168,189,-73,-105,179,17,-73,-93,-133,-171,37
-21,168,189,-73,-105,179,17,-73,-93,-133,-171,37
-21,168,189,-73,-105,179,18,-72,-93,-133,-172,37
-21,168,189,-73,-105,179,18,-72,-93,-132,-171,37
-21,169,190,-74,-105,180,18,-72,-93,-132,-171,37
-20,169,189,-74,-104,179,19,-72,-93,-132,-171,37
-20,168,188,-74,-104,178,18,-72,-93,-132,-171,38
-21,169,190,-74,-105,180,18,-73,-93,-132,-171,38
-20,169,189,-74,-104,179,18,-73,-94,-132,-171,38
-20,169,189,-74,-104,179,18,-73,-94,-132,-171,38
-21,168,189,-73,-105,179,18,-74,-94,-133,-171,38
-21,168,189,-73,-105,179,18,-74,-94,-133,-171,38
-21,168,189,-73,-105,179,18,-74,-94,-132,-171,37
-21,168,189,-73,-105,179,18,-74,-94,-132,-171,37
-21,168,189,-73,-105,179,18,-74,-94,-132,-171,37
-21,168,189,-73,-105,179,18,-75,-94,-133,-171,37
-20,168,188,-74,-104,178,18,-75,-94,-133,-171,37
-20,169,189,-74,-104,179,18,-74,-94,-133,-170,38
-20,169,189,-74,-104,179,18,-74,-93,-133,-170,39
-19,170,189,-75,-104,180,18,-74,-93,-133,-170,39
-18,171,189,-76,-103,180,17,-74,-93,-132,-170,39
-18,172,190,-77,-104,181,18,-73,-92,-131,-169,40
-17,173,190,-78,-103,182,18,-72,-92,-130,-169,40
-16,174,190,-79,-103,182,19,-71,-90,-129,-167,40
-15,176,191,-80,-103,184,19,-71,-90,-128,-167,40
-14,177,191,-81,-102,184,19,-71,-90,-128,-167,40
-14,178,192,-82,-103,185,19,-70,-89,-127,-166,41
-13,179,192,-83,-102,186,19,-71,-88,-126,-165,41
-13,180,193,-83,-103,187,19,-70,-87,-125,-164,43
-12,181,193,-84,-102,187,19,-70,-86,-124,-163,43
-12,183,195,-85,-103,189,20,-70,-84,-123,-163,44
-11,184,195,-86,-103,190,22,-69,-82,-122,-161,45
-11,185,196,-87,-103,191,22,-69,-81,-122,-161,45
-11,186,197,-87,-104,192,23,-69,-80,-121,-161,46
-10,187,197,-88,-103,192,21,-70,-80,-121,-161,46
-10,188,198,-89,-104,193,20,-70,-79,-120,-160,47
-9,189,198,-90,-103,194,18,-71,-80,-120,-160,47
-7,190,197,-91,-102,194,16,-72,-80,-119,-159,48
-6,192,198,-93,-102,195,13,-73,-79,-118,-158,49
-4,193,197,-94,-100,195,12,-73,-78,-117,-157,50
-3,195,198,-96,-100,197,11,-73,-77,-116,-156,51
-3,196,199,-96,-101,198,11,-72,-76,-114,-155,51
-3,196,199,-96,-101,198,12,-71,-75,-114,-155,51
-3,195,198,-96,-100,197,12,-71,-77,-114,-155,51
-3,193,196,-95,-99,195,11,-71,-78,-115,-156,50
-4,191,195,-93,-99,193,10,-73,-81,-117,-157,50
-4,190,194,-93,-99,192,8,-76,-85,-119,-159,49
-5,188,193,-91,-99,191,6,-78,-87,-121,-160,48
-6,187,193,-90,-99,190,4,-81,-90,-122,-161,48
-7,186,193,-89,-100,190,4,-83,-91,-123,-162,48
-8,186,194,-89,-101,190,3,-84,-93,-124,-163,47
-8,186,194,-89,-101,190,4,-84,-93,-125,-163,47
-8,185,193,-88,-100,189,5,-83,-93,-125,-164,46
-8,184,192,-88,-100,188,7,-82,-92,-124,-163,47
-7,183,190,-88,-98,187,8,-81,-92,-124,-164,47
-7,182,189,-87,-98,186,9,-80,-91,-124,-164,47
-7,181,188,-87,-97,185,9,-80,-92,-124,-164,46
-7,180,187,-86,-97,184,10,-79,-92,-123,-164,47
-8,179,187,-85,-97,183,10,-80,-93,-125,-166,46
-8,178,186,-85,-97,182,11,-80,-93,-125,-165,46
-9,177,186,-84,-97,182,10,-81,-94,-126,-166,45
-10,175,185,-82,-97,180,11,-81,-95,-127,-167,44
-10,174,184,-82,-97,179,12,-80,-95,-128,-168,44
-11,173,184,-81,-97,179,11,-81,-96,-129,-169,42
-12,172,184,-80,-98,178,12,-80,-96,-130,-169,41
-13,171,184,-79,-98,178,13,-79,-96,-130,-170,40
-15,170,185,-77,-100,178,14,-78,-97,-131,-171,40
-16,169,185,-76,-100,177,14,-78,-98,-132,-173,38
-17,168,185,-75,-101,177,15,-77,-98,-133,-173,38
-18,167,185,-74,-101,176,16,-76,-97,-133,-173,38
-18,166,184,-74,-101,175,16,-77,-98,-134,-174,37
-19,166,185,-73,-102,176,15,-78,-99,-135,-175,36
-19,166,185,-73,-102,176,15,-78,-100,-135,-175,36
-19,166,185,-73,-102,176,15,-78,-100,-136,-175,36
-19,165,184,-73,-101,175,16,-78,-100,-135,-174,36
-19,165,184,-73,-101,175,15,-78,-101,-136,-175,36
-18,165,183,-73,-100,174,14,-79,-102,-137,-176,35
-18,165,183,-73,-100,174,14,-80,-103,-137,-176,34
-18,164,182,-73,-100,173,15,-79,-102,-137,-176,35
-19,164,183,-72,-101,174,15,-80,-103,-137,-176,34
-19,164,183,-72,-101,174,15,-80,-103,-138,-176,34
-20,163,183,-71,-101,173,16,-79,-103,-138,-176,34
-20,163,183,-71,-101,173,16,-79,-104,-139,-177,33
-21,163,184,-71,-102,174,16,-79,-104,-139,-177,33
-21,163,184,-71,-102,174,15,-79,-103,-139,-176,33
-21,162,183,-70,-102,173,15,-79,-103,-139,-177,32
-21,162,183,-70,-102,173,15,-79,-103,-139,-177,32
-20,162,182,-71,-101,172,15,-79,-103,-139,-177,32
-20,162,182,-71,-101,172,15,-79,-103,-139,-177,32
-20,162,182,-71,-101,172,15,-79,-103,-139,-177,32
-21,161,182,-70,-101,172,16,-78,-102,-138,-177,32
-21,162,183,-70,-102,173,15,-80,-103,-139,-178,32
-21,162,183,-70,-102,173,15,-80,-103,-139,-178,32
-21,162,183,-70,-102,173,15,-79,-103,-139,-178,32
-21,162,183,-70,-102,173,15,-79,-103,-139,-178,32
-21,162,183,-70,-102,173,16,-79,-102,-139,-178,32
-20,162,182,-71,-101,172,16,-79,-102,-139,-178,32
-21,162,183,-70,-102,173,16,-79,-102,-139,-178,32
-21,162,183,-70,-102,173,15,-79,-102,-139,-178,32
-21,162,183,-70,-102,173,15,-79,-102,-139,-178,32
-21,162,183,-70,-102,173,15,-79,-102,-139,-178,32
-22,162,184,-70,-103,173,16,-78,-101,-138,-177,33
-22,161,183,-69,-102,172,16,-78,-101,-138,-177,33
-22,161,183,-69,-102,172,16,-78,-101,-138,-177,33
-22,161,183,-69,-102,172,16,-78,-101,-138,-176,33
-21,161,182,-70,-101,172,16,-78,-100,-138,-176,33
-21,161,182,-70,-101,172,17,-78,-100,-138,-176,33
-22,160,182,-69,-102,171,17,-78,-100,-138,-176,33
-22,161,183,-69,-102,172,16,-78,-100,-138,-176,33
-22,161,183,-69,-102,172,16,-78,-100,-138,-176,33
-22,160,182,-69,-102,171,16,-78,-100,-138,-176,32
-22,160,182,-69,-102,171,16,-78,-99,-139,-176,32
-23,161,184,-69,-103,173,17,-77,-98,-139,-177,32
-25,161,186,-68,-105,174,19,-75,-95,-140,-177,31
-27,161,188,-67,-107,175,24,-71,-91,-141,-179,29
-31,160,191,-64,-111,176,30,-67,-84,-144,-184,26
-36,159,195,-61,-115,177,38,-59,-74,-148,-189,21
-41,158,199,-58,-120,179,49,-48,-60,-154,-197,14
-47,156,203,-54,-125,180,63,-31,-40,-159,-206,6
-51,154,205,-51,-128,180,78,-8,-15,-166,-217,-3
-53,150,203,-48,-128,177,96,23,18,-170,-227,-12
-52,147,199,-47,-125,173,115,60,61,-168,-234,-19
-47,146,193,-49,-120,170,131,97,109,-161,-236,-24
-38,150,188,-56,-113,169,142,128,156,-145,-232,-23
-28,159,187,-65,-107,173,146,148,195,-123,-219,-14
-17,175,192,-79,-104,184,141,148,213,-98,-200,0
-6,199,205,-96,-105,202,124,124,197,-73,-174,22
4,227,223,-115,-109,225,98,80,143,-48,-141,52
14,257,243,-135,-114,250,65,19,54,-27,-101,89
23,288,265,-155,-121,277,26,-52,-65,-9,-57,129
34,318,284,-176,-125,301,-19,-130,-206,8,-7,174
47,346,299,-196,-126,323,-67,-208,-360,24,48,222
60,369,309,-214,-124,339,-114,-281,-510,35,103,272
72,387,315,-229,-121,351,-156,-347,-645,38,151,316
81,396,315,-238,-117,356,-189,-397,-752,32,186,350
87,397,310,-242,-111,354,-211,-432,-832,9,204,373
87,392,305,-239,-109,349,-221,-453,-887,-37,199,381
81,381,300,-231,-109,341,-220,-462,-916,-98,172,374
72,361,289,-216,-108,325,-206,-454,-916,-163,132,355
60,334,274,-197,-107,304,-185,-432,-897,-233,79,326
45,305,260,-175,-107,283,-158,-404,-869,-304,19,290
31,270,239,-150,-104,255,-127,-368,-830,-360,-39,251
20,229,209,-124,-94,219,-93,-323,-776,-391,-90,211
10,185,175,-97,-82,180,-58,-271,-712,-405,-134,173
2,145,143,-73,-70,144,-26,-220,-646,-407,-172,136
-5,111,116,-53,-60,114,2,-171,-579,-393,-199,103
-9,85,94,-38,-51,90,23,-129,-514,-369,-215,77
-13,69,82,-28,-47,76,35,-97,-455,-340,-221,59
-15,64,79,-24,-47,72,39,-78,-405,-315,-225,45
-18,67,85,-24,-51,76,41,-65,-359,-291,-225,34
-20,74,94,-27,-57,84,40,-56,-317,-267,-222,26
-21,84,105,-31,-63,95,38,-52,-276,-244,-216,23
-22,96,118,-37,-70,107,37,-50,-237,-220,-208,23
-22,107,129,-42,-75,118,37,-49,-201,-199,-200,23
-22,117,139,-47,-80,128,38,-46,-168,-179,-191,25
-20,126,146,-53,-83,136,36,-46,-140,-162,-183,28
-19,135,154,-58,-86,145,35,-45,-117,-148,-176,32
-17,142,159,-62,-88,151,34,-46,-99,-137,-170,35
-15,147,162,-66,-88,155,32,-47,-87,-131,-167,36
-15,150,165,-67,-90,158,31,-47,-77,-126,-165,38
-15,152,167,-68,-91,160,32,-46,-69,-122,-164,39
-15,152,167,-68,-91,160,32,-45,-64,-120,-164,38
-16,152,168,-68,-92,160,32,-44,-61,-119,-165,37
-16,151,167,-67,-91,159,32,-44,-58,-118,-167,35
-17,150,167,-66,-92,159,33,-42,-54,-116,-167,35
-17,149,166,-66,-91,158,33,-42,-51,-114,-167,34
-17,150,167,-66,-92,159,33,-41,-48,-113,-167,33
-17,150,167,-66,-92,159,34,-40,-44,-112,-167,32
-16,151,167,-67,-91,159,33,-41,-43,-111,-166,32
-16,152,168,-68,-92,160,34,-41,-40,-110,-165,33
-16,153,169,-68,-92,161,34,-41,-37,-109,-164,33
-16,153,169,-68,-92,161,33,-41,-36,-109,-163,34
-15,153,168,-69,-91,161,32,-42,-35,-109,-164,33
-15,154,169,-69,-92,162,31,-42,-34,-108,-164,33
-16,154,170,-69,-93,162,30,-42,-32,-107,-164,32
-16,153,169,-68,-92,161,31,-41,-30,-105,-163,33
-16,154,170,-69,-93,162,30,-42,-29,-105,-164,32
-16,154,170,-69,-93,162,30,-40,-27,-104,-163,32
-15,155,170,-70,-92,163,30,-40,-26,-104,-162,32
-15,155,170,-70,-92,163,30,-39,-24,-103,-161,33
-15,156,171,-70,-93,164,29,-39,-24,-104,-161,33
-14,156,170,-71,-92,163,29,-39,-23,-103,-160,34
-14,156,170,-71,-92,163,29,-39,-23,-102,-160,34
-14,156,170,-71,-92,163,30,-39,-22,-101,-160,34
-14,156,170,-71,-92,163,30,-39,-21,-100,-160,34
-14,156,170,-71,-92,163,30,-38,-20,-99,-160,33
-14,156,170,-71,-92,163,30,-38,-19,-99,-160,33
-14,156,170,-71,-92,163,30,-37,-17,-98,-159,33
-13,156,169,-71,-91,163,30,-36,-16,-97,-158,34
-13,157,170,-72,-91,164,30,-37,-16,-98,-158,33
-12,157,169,-72,-90,163,30,-36,-15,-97,-157,34
-12,158,170,-73,-91,164,29,-36,-14,-97,-157,35
-12,158,170,-73,-91,164,29,-36,-14,-96,-157,36
-12,158,170,-73,-91,164,29,-36,-14,-96,-157,35
-12,157,169,-72,-90,163,29,-36,-14,-96,-157,35
-13,156,169,-71,-91,163,30,-36,-12,-94,-157,35
-13,156,169,-71,-91,163,30,-35,-11,-94,-156,35
-12,157,169,-72,-90,163,29,-35,-12,-94,-156,34
-12,157,169,-72,-90,163,30,-35,-11,-94,-156,34
-12,157,169,-72,-90,163,30,-35,-10,-93,-155,35
-11,158,169,-73,-90,164,29,-35,-10,-94,-155,35
-11,158,169,-73,-90,164,30,-35,-10,-93,-155,36
-11,158,169,-73,-90,164,30,-35,-10,-93,-155,36
-11,158,169,-73,-90,164,30,-35,-9,-93,-155,36
-11,158,169,-73,-90,164,30,-35,-8,-92,-155,36
-11,157,168,-73,-89,163,31,-33,-7,-91,-154,37
-10,157,167,-73,-88,162,30,-34,-7,-91,-155,36
-10,157,167,-73,-88,162,30,-33,-6,-90,-154,36
-10,158,168,-74,-89,163,30,-32,-5,-90,-153,36
-9,158,167,-74,-88,163,30,-32,-4,-89,-152,37
-9,158,167,-74,-88,163,30,-32,-4,-89,-151,37
-9,157,166,-74,-87,162,29,-32,-3,-89,-151,37
-9,157,166,-74,-87,162,29,-32,-3,-88,-151,37
-9,157,166,-74,-87,162,29,-32,-3,-88,-152,37
-9,157,166,-74,-87,162,28,-32,-2,-87,-152,36
-9,157,166,-74,-87,162,28,-31,-2,-87,-152,36
-9,157,166,-74,-87,162,28,-30,0,-86,-151,36
-8,158,166,-75,-87,162,28,-30,0,-86,-151,36
-8,159,167,-75,-87,163,29,-30,0,-85,-150,37
-7,159,166,-76,-86,163,29,-29,1,-84,-149,38
-7,160,167,-76,-87,164,28,-29,1,-84,-150,38
-6,160,166,-77,-86,163,29,-29,1,-84,-149,38
-6,160,166,-77,-86,163,29,-29,1,-84,-149,39
-6,160,166,-77,-86,163,29,-29,1,-83,-149,39
-5,160,165,-77,-85,163,29,-28,1,-83,-149,39
-5,160,165,-77,-85,163,29,-28,1,-82,-149,39
-4,160,164,-78,-84,162,29,-28,1,-82,-149,38
-4,160,164,-78,-84,162,29,-27,1,-81,-148,38
-4,160,164,-78,-84,162,30,-26,2,-81,-147,39
-3,160,163,-78,-83,162,30,-26,2,-80,-145,40
-3,161,164,-79,-83,163,30,-25,2,-80,-144,40
-3,161,164,-79,-83,163,30,-25,2,-80,-144,41
-3,161,164,-79,-83,163,30,-25,1,-79,-144,42
-3,161,164,-79,-83,163,30,-25,1,-79,-144,42
-2,162,164,-80,-83,163,29,-25,0,-80,-145,41
-2,162,164,-80,-83,163,29,-25,0,-79,-145,41
-1,162,163,-80,-82,163,30,-24,1,-78,-144,41
-1,163,164,-81,-82,164,29,-24,0,-78,-144,40
0,163,163,-81,-81,163,29,-23,0,-78,-143,41
1,163,162,-82,-80,163,29,-23,-1,-78,-142,42
1,162,161,-81,-80,162,28,-22,-1,-78,-141,43
1,162,161,-81,-80,162,28,-23,-2,-78,-141,43
1,162,161,-81,-80,162,27,-23,-3,-79,-141,44
1,162,161,-81,-80,162,27,-23,-4,-79,-140,44
1,162,161,-81,-80,162,26,-23,-4,-78,-140,45
1,162,161,-81,-80,162,27,-23,-5,-77,-139,46
2,163,161,-82,-79,162,26,-23,-6,-77,-139,45
3,163,160,-83,-78,162,26,-22,-6,-75,-137,47
4,163,159,-83,-77,161,26,-21,-7,-74,-136,48
6,164,158,-85,-76,161,25,-21,-8,-74,-135,49
7,165,158,-86,-75,162,24,-21,-10,-74,-134,50
8,166,158,-87,-75,162,23,-22,-12,-75,-133,50
9,166,157,-87,-74,162,22,-22,-13,-74,-132,52
9,167,158,-88,-74,163,21,-22,-15,-74,-131,53
9,167,158,-88,-74,163,20,-22,-18,-74,-131,53
10,167,157,-88,-73,162,19,-23,-21,-75,-131,53
10,168,158,-89,-74,163,18,-24,-23,-74,-130,53
11,168,157,-89,-73,163,18,-24,-26,-74,-128,54
11,169,158,-90,-73,164,16,-25,-29,-75,-127,55
12,169,157,-90,-72,163,15,-26,-32,-75,-125,56
13,169,156,-91,-71,163,14,-27,-35,-75,-124,57
14,169,155,-91,-70,162,12,-29,-39,-76,-124,58
14,169,155,-91,-70,162,11,-30,-43,-76,-123,59
15,169,154,-92,-69,162,10,-32,-47,-77,-122,60
15,169,154,-92,-69,162,8,-34,-51,-77,-121,60
15,169,154,-92,-69,162,7,-35,-55,-77,-121,61
16,169,153,-92,-68,161,6,-36,-58,-78,-119,63
16,170,154,-93,-69,162,4,-39,-63,-79,-119,63
16,171,155,-93,-69,163,2,-40,-67,-80,-117,64
17,172,155,-94,-69,164,0,-43,-72,-81,-117,65
18,173,155,-95,-68,164,-1,-45,-76,-81,-115,67
18,174,156,-96,-69,165,-4,-48,-82,-83,-115,68
18,175,157,-96,-69,166,-5,-51,-86,-84,-114,69
18,175,157,-96,-69,166,-7,-53,-90,-84,-114,71
19,176,157,-97,-69,167,-9,-56,-96,-85,-114,71
19,176,157,-97,-69,167,-9,-58,-100,-86,-113,72
19,176,157,-97,-69,167,-10,-59,-103,-86,-112,73
19,177,158,-98,-69,168,-10,-61,-107,-87,-111,74
20,177,157,-98,-68,167,-11,-63,-111,-87,-109,75
20,178,158,-99,-69,168,-13,-66,-115,-89,-109,76
20,178,158,-99,-69,168,-14,-68,-118,-90,-109,77
20,178,158,-99,-69,168,-15,-71,-121,-91,-109,77
19,178,159,-98,-70,169,-15,-72,-123,-91,-109,78
19,178,159,-98,-70,169,-16,-74,-125,-93,-110,78
19,178,159,-98,-70,169,-16,-76,-127,-94,-111,77
18,178,160,-98,-71,169,-16,-77,-129,-95,-112,77
18,179,161,-98,-71,170,-16,-78,-129,-96,-113,76
17,179,162,-98,-72,171,-15,-78,-129,-97,-114,75
16,179,163,-97,-73,171,-14,-78,-129,-98,-115,75
15,180,165,-97,-75,173,-13,-79,-128,-99,-117,74
14,179,165,-96,-75,172,-12,-78,-127,-100,-117,74
13,179,166,-96,-76,173,-11,-79,-126,-102,-119,72
12,179,167,-95,-77,173,-10,-79,-125,-103,-121,72
10,178,168,-94,-79,173,-8,-79,-123,-104,-122,71
9,177,168,-93,-79,173,-8,-80,-123,-105,-124,70
7,176,169,-91,-81,173,-7,-79,-121,-106,-126,69
6,176,170,-91,-82,173,-5,-78,-119,-106,-127,68
5,176,171,-90,-83,174,-4,-77,-118,-107,-129,67
4,176,172,-90,-84,174,-3,-77,-116,-108,-130,65
3,176,173,-89,-85,175,-1,-76,-113,-108,-131,65
3,176,173,-89,-85,175,1,-75,-111,-109,-132,64
2,176,174,-89,-86,175,2,-75,-110,-110,-134,62
1,175,174,-88,-86,175,3,-75,-107,-111,-136,62
0,175,175,-87,-87,175,4,-75,-106,-112,-138,60
-1,175,176,-87,-88,176,4,-75,-105,-113,-141,58
-3,174,177,-85,-90,176,6,-74,-103,-114,-142,57
-4,174,178,-85,-91,176,8,-73,-100,-114,-143,55
-5,174,179,-84,-92,177,8,-73,-99,-115,-145,54
-5,174,179,-84,-92,177,9,-72,-98,-115,-146,52
-6,173,179,-83,-92,176,11,-71,-95,-116,-146,52
-7,173,180,-83,-93,177,12,-71,-94,-117,-148,51
-7,172,179,-82,-93,176,11,-71,-93,-118,-149,50
-7,172,179,-82,-93,176,11,-71,-92,-119,-150,49
-8,171,179,-81,-93,175,13,-70,-90,-119,-151,48
-9,170,179,-80,-94,175,14,-69,-89,-119,-151,48
-9,170,179,-80,-94,175,14,-69,-88,-119,-152,47
-10,169,179,-79,-94,174,14,-69,-88,-120,-153,46
-10,169,179,-79,-94,174,15,-68,-88,-120,-155,45
-10,169,179,-79,-94,174,15,-68,-87,-121,-155,44
-10,169,179,-79,-94,174,15,-68,-86,-121,-156,44
-10,170,180,-80,-95,175,15,-68,-85,-121,-156,44
-11,170,181,-79,-96,176,15,-69,-85,-122,-156,44
-11,170,181,-79,-96,176,15,-69,-84,-122,-157,43
-11,169,180,-79,-95,175,16,-68,-83,-121,-156,44
-11,169,180,-79,-95,175,17,-68,-83,-121,-157,43
-12,169,181,-78,-96,175,17,-67,-82,-121,-157,43
-12,169,181,-78,-96,175,17,-67,-82,-121,-158,42
-12,169,181,-78,-96,175,17,-67,-82,-121,-158,42
-12,169,181,-78,-96,175,17,-66,-81,-121,-158,42
-12,169,181,-78,-96,175,18,-66,-81,-121,-158,42
-12,169,181,-78,-96,175,18,-66,-81,-121,-158,42
-12,169,181,-78,-96,175,17,-66,-81,-122,-159,42
-13,168,181,-77,-97,175,18,-65,-79,-121,-158,42
-13,168,181,-77,-97,175,18,-65,-79,-121,-158,41
-13,168,181,-77,-97,175,19,-64,-78,-121,-158,41
-13,168,181,-77,-97,175,19,-64,-78,-121,-159,41
-12,168,180,-78,-96,174,18,-64,-78,-121,-160,40
-12,168,180,-78,-96,174,18,-64,-78,-121,-159,40
-11,169,180,-79,-95,175,18,-64,-77,-121,-159,40
-11,169,180,-79,-95,175,19,-64,-77,-121,-159,41
-11,169,180,-79,-95,175,18,-64,-76,-120,-159,41
-11,169,180,-79,-95,175,18,-64,-76,-120,-159,41
-11,169,180,-79,-95,175,18,-64,-76,-120,-159,41
-11,169,180,-79,-95,175,18,-64,-76,-120,-159,41
-11,169,180,-79,-95,175,18,-64,-76,-120,-160,40
-11,168,179,-78,-95,174,18,-63,-76,-120,-160,40
-12,168,180,-78,-96,174,18,-63,-76,-121,-160,40
-12,168,180,-78,-96,174,18,-64,-76,-121,-160,39
-12,167,179,-77,-95,173,19,-63,-75,-120,-160,40
-11,168,179,-78,-95,174,18,-65,-76,-121,-161,39
-11,167,178,-78,-94,173,18,-65,-76,-121,-161,39
-11,167,178,-78,-94,173,18,-65,-76,-121,-161,39
-12,167,179,-77,-95,173,19,-65,-75,-121,-161,40
-12,166,178,-77,-95,172,19,-65,-75,-121,-161,40
-13,166,179,-76,-96,173,19,-65,-76,-121,-161,39
-13,166,179,-76,-96,173,19,-65,-76,-121,-162,39
-13,166,179,-76,-96,173,19,-65,-76,-121,-162,39
-13,167,180,-77,-96,174,19,-64,-76,-121,-162,39
-12,167,179,-77,-95,173,20,-64,-76,-121,-162,39
-12,168,180,-78,-96,174,19,-64,-77,-122,-163,38
-11,168,179,-78,-95,174,19,-64,-77,-123,-162,38
-11,168,179,-78,-95,174,19,-64,-77,-123,-162,38
-11,168,179,-78,-95,174,18,-64,-77,-123,-162,38
-11,168,179,-78,-95,174,18,-64,-78,-123,-162,38
-11,168,179,-78,-95,174,18,-64,-78,-123,-162,38
-11,168,179,-78,-95,174,17,-65,-79,-122,-162,38
-11,168,179,-78,-95,174,17,-65,-79,-122,-162,38
-11,168,179,-78,-95,174,17,-65,-79,-123,-162,38
-11,168,179,-78,-95,174,17,-65,-79,-123,-162,38
-11,168,179,-78,-95,174,17,-65,-79,-123,-162,38
-12,168,180,-78,-96,174,17,-65,-80,-124,-163,38
-12,167,179,-77,-95,173,17,-65,-80,-124,-162,39
-12,167,179,-77,-95,173,17,-65,-81,-125,-163,39
-12,167,179,-77,-95,173,17,-65,-81,-125,-163,38
-12,166,178,-77,-95,172,17,-66,-82,-125,-164,38
-13,166,179,-76,-96,173,17,-66,-83,-125,-164,38
-13,166,179,-76,-96,173,18,-66,-83,-125,-164,37
-12,167,179,-77,-95,173,18,-66,-83,-124,-163,37
-12,167,179,-77,-95,173,19,-66,-84,-124,-163,38
-12,167,179,-77,-95,173,19,-66,-84,-125,-163,38
-11,168,179,-78,-95,174,18,-67,-85,-126,-164,38
-11,168,179,-78,-95,174,18,-68,-85,-126,-164,38
-11,168,179,-78,-95,174,18,-68,-86,-127,-164,38
-11,168,179,-78,-95,174,17,-68,-87,-128,-165,38
-11,168,179,-78,-95,174,17,-68,-87,-128,-165,38
-11,168,179,-78,-95,174,18,-68,-88,-127,-165,37
-11,168,179,-78,-95,174,18,-68,-88,-127,-165,37
-11,168,179,-78,-95,174,18,-68,-89,-127,-165,37
-11,168,179,-78,-95,174,18,-68,-89,-127,-164,37
-11,168,179,-78,-95,174,18,-68,-89,-128,-164,36
-11,167,178,-78,-94,173,18,-69,-90,-128,-165,36
-11,167,178,-78,-94,173,17,-69,-91,-129,-165,36
-12,167,179,-77,-95,173,18,-69,-90,-128,-164,37
-12,166,178,-77,-95,172,17,-69,-91,-129,-165,36
-12,166,178,-77,-95,172,16,-70,-91,-129,-166,36
-12,165,177,-76,-94,171,17,-69,-92,-129,-166,36
-12,165,177,-76,-94,171,17,-69,-91,-129,-167,36
-12,166,178,-77,-95,172,17,-69,-91,-129,-167,37
-11,166,177,-77,-94,172,17,-69,-92,-129,-167,37
-11,166,177,-77,-94,172,17,-70,-92,-129,-167,37
-11,166,177,-77,-94,172,17,-70,-92,-129,-166,37
-11,167,178,-78,-94,173,15,-71,-94,-130,-167,36
-12,167,179,-77,-95,173,16,-71,-93,-130,-166,37
-13,166,179,-76,-96,173,15,-71,-94,-130,-167,37
-13,166,179,-76,-96,173,15,-72,-94,-130,-167,37
-13,165,178,-76,-95,172,16,-71,-94,-130,-167,38
-14,165,179,-75,-96,172,15,-72,-95,-130,-167,37
-14,165,179,-75,-96,172,15,-72,-95,-130,-167,37
-13,165,178,-76,-95,172,15,-72,-95,-130,-167,37
